Theta (degrees)	Normalized Energy
0.000000000000000000e+00 0.000000000000000000e+00
3.602882305844675725e-01 4.055669777546042262e-06
7.205764611689351451e-01 1.622247283181195088e-05
1.080864691753402829e+00 3.649979029130152040e-05
1.441152922337870290e+00 6.488659060270122742e-05
1.801441152922337974e+00 1.013814293684091376e-04
2.161729383506805657e+00 1.459824491245469190e-04
2.522017614091273341e+00 1.986873790593094303e-04
2.882305844675740580e+00 2.594935346589915767e-04
3.242594075260207820e+00 3.283978172910059974e-04
3.602882305844675948e+00 4.053967137223634157e-04
3.963170536429143187e+00 4.904862955691045032e-04
4.323458767013611315e+00 5.836622186761011898e-04
4.683746997598078110e+00 6.849197224244630037e-04
5.044035228182546682e+00 7.942536289717137691e-04
5.404323458767013477e+00 9.116583424147711029e-04
5.764611689351481161e+00 1.037127847876527986e-03
6.124899919935949733e+00 1.170655710516184562e-03
6.485188150520415640e+00 1.312235074457869912e-03
6.845476381104885100e+00 1.461858661639083489e-03
7.205764611689351895e+00 1.619518770567751663e-03
7.566052842273819579e+00 1.785207274996994387e-03
7.926341072858286374e+00 1.958915622505520964e-03
8.286629303442753169e+00 2.140634832980093955e-03
8.646917534027222629e+00 2.330355497002825713e-03
9.007205764611688537e+00 2.528067774136460825e-03
9.367493995196156220e+00 2.733761391095216892e-03
9.727782225780625680e+00 2.947425639814699530e-03
1.008807045636509336e+01 3.169049375397117209e-03
1.044835868694956105e+01 3.398621013936434579e-03
1.080864691753402695e+01 3.636128530221807622e-03
1.116893514811849464e+01 3.881559455302917468e-03
1.152922337870296232e+01 4.134900873915898362e-03
1.188951160928743001e+01 4.396139421767607247e-03
1.224979983987189947e+01 4.665261282666872955e-03
1.261008807045636537e+01 4.942252185491101055e-03
1.297037630104083128e+01 5.227097400992221192e-03
1.333066453162530074e+01 5.519781738419718246e-03
1.369095276220977020e+01 5.820289541962203606e-03
1.405124099279423611e+01 6.128604686994209953e-03
1.441152922337870379e+01 6.444710576115694409e-03
1.477181745396317147e+01 6.768590134978360630e-03
1.513210568454763916e+01 7.100225807883948047e-03
1.549239391513210684e+01 7.439599553141624383e-03
1.585268214571657275e+01 7.786692838177258942e-03
1.621297037630104043e+01 8.141486634371459738e-03
1.657325860688550634e+01 8.503961411619666289e-03
1.693354683746997935e+01 8.874097132596984669e-03
1.729383506805444526e+01 9.251873246706230833e-03
1.765412329863891117e+01 9.637268683697110261e-03
1.801441152922337707e+01 1.003026184693686131e-02
1.837469975980784653e+01 1.043083060630847249e-02
1.873498799039231244e+01 1.083895229071742995e-02
1.909527622097677835e+01 1.125460368018455642e-02
1.945556445156125136e+01 1.167776099750112220e-02
1.981585268214571727e+01 1.210839989941342627e-02
2.017614091273018673e+01 1.254649546732214578e-02
2.053642914331465263e+01 1.299202219744828753e-02
2.089671737389912209e+01 1.344495399045294443e-02
2.125700560448358800e+01 1.390526414046019781e-02
2.161729383506805391e+01 1.437292532345960626e-02
2.197758206565252337e+01 1.484790958503677538e-02
2.233787029623698928e+01 1.533018832740207400e-02
2.269815852682145874e+01 1.581973229566354527e-02
2.305844675740592464e+01 1.631651156329589486e-02
2.341873498799039055e+01 1.682049551676488910e-02
2.377902321857486001e+01 1.733165283923151015e-02
2.413931144915932592e+01 1.784995149329719061e-02
2.449959967974379893e+01 1.837535870270877794e-02
2.485988791032826484e+01 1.890784093296603643e-02
2.522017614091273074e+01 1.944736387075004028e-02
2.558046437149719665e+01 1.999389240209390947e-02
2.594075260208166256e+01 2.054739058921078651e-02
2.630104083266613202e+01 2.110782164588780041e-02
2.666132906325060148e+01 2.167514791133397581e-02
2.702161729383506739e+01 2.224933082239702320e-02
2.738190552441954040e+01 2.283033088400146168e-02
2.774219375500400631e+01 2.341810763771058276e-02
2.810248198558847221e+01 2.401261962824961446e-02
2.846277021617293812e+01 2.461382436786810693e-02
2.882305844675740758e+01 2.522167829835466821e-02
2.918334667734187704e+01 2.583613675054796319e-02
2.954363490792634295e+01 2.645715390115187596e-02
2.990392313851080885e+01 2.708468272664370929e-02
3.026421136909527831e+01 2.771867495406087067e-02
3.062449959967974422e+01 2.835908100841766019e-02
3.098478783026421368e+01 2.900584995649756193e-02
3.134507606084867959e+01 2.965892944672569864e-02
3.170536429143314550e+01 3.031826564481646460e-02
3.206565252201760785e+01 3.098380316485393679e-02
3.242594075260208086e+01 3.165548499543498207e-02
3.278622898318654677e+01 3.233325242047314918e-02
3.314651721377101268e+01 3.301704493421723369e-02
3.350680544435548569e+01 3.370680015000138141e-02
3.386709367493995870e+01 3.440245370220409299e-02
3.422738190552442461e+01 3.510393914083165950e-02
3.458767013610889052e+01 3.581118781808787649e-02
3.494795836669335642e+01 3.652412876624776955e-02
3.530824659727782233e+01 3.724268856605171540e-02
3.566853482786228824e+01 3.796679120479640873e-02
3.602882305844675415e+01 3.869635792319135736e-02
3.638911128903122716e+01 3.943130704996363617e-02
3.674939951961569307e+01 4.017155382309955253e-02
3.710968775020015897e+01 4.091701019647757398e-02
3.746997598078462488e+01 4.166758463053948924e-02
3.783026421136909079e+01 4.242318186549708103e-02
3.819055244195355669e+01 4.318370267540812268e-02
3.855084067253803681e+01 4.394904360129076731e-02
3.891112890312250272e+01 4.471909666124003480e-02
3.927141713370696863e+01 4.549374903529534303e-02
3.963170536429143453e+01 4.627288272257715912e-02
3.999199359487590755e+01 4.705637416790434124e-02
4.035228182546037345e+01 4.784409385484274940e-02
4.071257005604483936e+01 4.863590586177033576e-02
4.107285828662930527e+01 4.943166737716726128e-02
4.143314651721377118e+01 5.023122816993413897e-02
4.179343474779824419e+01 5.103443001004993873e-02
4.215372297838271010e+01 5.184110603436524467e-02
4.251401120896717600e+01 5.265108005175230671e-02
4.287429943955164191e+01 5.346416578115319868e-02
4.323458767013610782e+01 5.428016601536849589e-02
4.359487590072058083e+01 5.509887170261548034e-02
4.395516413130504674e+01 5.592006093698212443e-02
4.431545236188951264e+01 5.674349784793454587e-02
4.467574059247397855e+01 5.756893137793871185e-02
4.503602882305844446e+01 5.839609393606811499e-02
4.539631705364291747e+01 5.922469991418571889e-02
4.575660528422738338e+01 6.005444405086245163e-02
4.611689351481184929e+01 6.088499962670643195e-02
4.647718174539631519e+01 6.171601647318928491e-02
4.683746997598078110e+01 6.254711877535622244e-02
4.719775820656525411e+01 6.337790264715505162e-02
4.755804643714972002e+01 6.420793345639774774e-02
4.791833466773418593e+01 6.503674287480713800e-02
4.827862289831865183e+01 6.586382562720462241e-02
4.863891112890311774e+01 6.668863591286817993e-02
4.899919935948759786e+01 6.751058347163498008e-02
4.935948759007206377e+01 6.832902926769381102e-02
4.971977582065652967e+01 6.914328076563226733e-02
5.008006405124099558e+01 6.995258677663136748e-02
5.044035228182546149e+01 7.075613185839167707e-02
5.080064051240992740e+01 7.155303026126672017e-02
5.116092874299439330e+01 7.234231942621774381e-02
5.152121697357885921e+01 7.312295305884389252e-02
5.188150520416332512e+01 7.389379382951541397e-02
5.224179343474779103e+01 7.465360578431216865e-02
5.260208166533226404e+01 7.540104659718380176e-02
5.296236989591673705e+01 7.613465985268839942e-02
5.332265812650120296e+01 7.685286762297412200e-02
5.368294635708566886e+01 7.755396369413498914e-02
5.404323458767013477e+01 7.823610790638463319e-02
5.440352281825460778e+01 7.889732219865187857e-02
5.476381104883908080e+01 7.953548908723129252e-02
5.512409927942354670e+01 8.014835345164482427e-02
5.548438751000801261e+01 8.073352863456763340e-02
5.584467574059247852e+01 8.128850796474118567e-02
5.620496397117694443e+01 8.181068285187535760e-02
5.656525220176141033e+01 8.229736854263199064e-02
5.692554043234587624e+01 8.274583842387960020e-02
5.728582866293034215e+01 8.315336737258210986e-02
5.764611689351481516e+01 8.351728405288082191e-02
5.800640512409927396e+01 8.383503124979434229e-02
5.836669335468375408e+01 8.410423234836389428e-02
5.872698158526820578e+01 8.432276101508132116e-02
5.908726981585268589e+01 8.448881016804364597e-02
5.944755804643715180e+01 8.460095562459808705e-02
5.980784627702161771e+01 8.465820958108129235e-02
6.016813450760608362e+01 8.466005944771051728e-02
6.052842273819055663e+01 8.460648856812634511e-02
6.088871096877501543e+01 8.449797689920415800e-02
6.124899919935948844e+01 8.433548158713126408e-02
6.160928742994395435e+01 8.412039924683269165e-02
6.196957566052842736e+01 8.385451332705649852e-02
6.232986389111290038e+01 8.353993099048993842e-02
6.269015212169735918e+01 8.317901434951452400e-02
6.305044035228183219e+01 8.277431070082723330e-02
6.341072858286629099e+01 8.232848572967366163e-02
6.377101681345076400e+01 8.184426269608351123e-02
6.413130504403521570e+01 8.132436956358647662e-02
6.449159327461970292e+01 8.077149504187278173e-02
6.485188150520416173e+01 8.018825369051495178e-02
6.521216973578863474e+01 7.957715961752195866e-02
6.557245796637309354e+01 7.894060790619561452e-02
6.593274619695756655e+01 7.828086268980063989e-02
6.629303442754202536e+01 7.760005072545309024e-02
6.665332265812651258e+01 7.690015935333553709e-02
6.701361088871097138e+01 7.618303782630343746e-02
6.737389911929544439e+01 7.545040112730423687e-02
6.773418734987991741e+01 7.470383553543355482e-02
6.809447558046437621e+01 7.394480534108539838e-02
6.845476381104884922e+01 7.317466023783823770e-02
6.881505204163330802e+01 7.239464302922378469e-02
6.917534027221778103e+01 7.160589738115068215e-02
6.953562850280223984e+01 7.080947542618894197e-02
6.989591673338671285e+01 7.000634508579110793e-02
7.025620496397117165e+01 6.919739702307482754e-02
7.061649319455564466e+01 6.838345117413265062e-02
7.097678142514011768e+01 6.756526283212162254e-02
7.133706965572457648e+01 6.674352827747451200e-02
7.169735788630904949e+01 6.591888996102912568e-02
7.205764611689350829e+01 6.509194125599750136e-02
7.241793434747798131e+01 6.426323080058951587e-02
7.277822257806245432e+01 6.343326645656814644e-02
7.313851080864691312e+01 6.260251891072049490e-02
7.349879903923138613e+01 6.177142494667805378e-02
7.385908726981585914e+01 6.094039041410500429e-02
7.421937550040031795e+01 6.010979292128575818e-02
7.457966373098479096e+01 5.927998427575310869e-02
7.493995196156924976e+01 5.845129269605435496e-02
7.530024019215372277e+01 5.762402481604070315e-02
7.566052842273818158e+01 5.679846750139582595e-02
7.602081665332265459e+01 5.597488949642680234e-02
7.638110488390711339e+01 5.515354291756113803e-02
7.674139311449158640e+01 5.433466460846644863e-02
7.710168134507607363e+01 5.351847737030301227e-02
7.746196957566053243e+01 5.270519107932636338e-02
7.782225780624500544e+01 5.189500370284239050e-02
7.818254603682946424e+01 5.108810222343797280e-02
7.854283426741393725e+01 5.028466348041680384e-02
7.890312249799839606e+01 4.948485493646930661e-02
7.926341072858286907e+01 4.868883537678887069e-02
7.962369895916732787e+01 4.789675554713476724e-02
7.998398718975181509e+01 4.710875873666280078e-02
8.034427542033625969e+01 4.632498131076833586e-02
8.070456365092074691e+01 4.554555319865623980e-02
8.106485188150520571e+01 4.477059833987381138e-02
8.142514011208967872e+01 4.400023509361825763e-02
8.178542834267413753e+01 4.323457661425344351e-02
8.214571657325861054e+01 4.247373119612538050e-02
8.250600480384308355e+01 4.171780259045865247e-02
8.286629303442754235e+01 4.096689029685241651e-02
8.322658126501201536e+01 4.022108983163263235e-02
8.358686949559648838e+01 3.948049297511358607e-02
8.394715772618094718e+01 3.874518799961580717e-02
8.430744595676542019e+01 3.801525987990977962e-02
8.466773418734987899e+01 3.729079048760018666e-02
8.502802241793435201e+01 3.657185877082332059e-02
8.538831064851881081e+01 3.585854092049368252e-02
8.574859887910328382e+01 3.515091052423252593e-02
8.610888710968774262e+01 3.444903870899833354e-02
8.646917534027221564e+01 3.375299427334765845e-02
8.682946357085667444e+01 3.306284381017329105e-02
8.718975180144116166e+01 3.237865182069080139e-02
8.755004003202560625e+01 3.170048082036681925e-02
8.791032826261009347e+01 3.102839143743631525e-02
8.827061649319456649e+01 3.036244250458742036e-02
8.863090472377902529e+01 2.970269114434176405e-02
8.899119295436349830e+01 2.904919284862717346e-02
8.935148118494795710e+01 2.840200155297360751e-02
8.971176941553243012e+01 2.776116970575384299e-02
9.007205764611688892e+01 2.712674833282579731e-02
9.043234587670136193e+01 2.649878709793333786e-02
9.079263410728583494e+01 2.587733435916508493e-02
9.115292233787029375e+01 2.526243722177410819e-02
9.151321056845476676e+01 2.465414158760353622e-02
9.187349879903922556e+01 2.405249220138265878e-02
9.223378702962369857e+01 2.345753269409740424e-02
9.259407526020817158e+01 2.286930562365522765e-02
9.295436349079263039e+01 2.228785251302720094e-02
9.331465172137711761e+01 2.171321388604183916e-02
9.367493995196156220e+01 2.114542930099798032e-02
9.403522818254604942e+01 2.058453738223876145e-02
9.439551641313050823e+01 2.003057584982631187e-02
9.475580464371498124e+01 1.948358154744948487e-02
9.511609287429944004e+01 1.894359046867451560e-02
9.547638110488391305e+01 1.841063778165306919e-02
9.583666933546837186e+01 1.788475785238705096e-02
9.619695756605284487e+01 1.736598426664508199e-02
9.655724579663730367e+01 1.685434985061299781e-02
9.691753402722177668e+01 1.634988669036657044e-02
9.727782225780623548e+01 1.585262615023302207e-02
9.763811048839070850e+01 1.536259889011769644e-02
9.799839871897519572e+01 1.487983488185720161e-02
9.835868694955964031e+01 1.440436342465793024e-02
9.871897518014412753e+01 1.393621315968150524e-02
9.907926341072857213e+01 1.347541208382104817e-02
9.943955164131305935e+01 1.302198756272637120e-02
9.979983987189750394e+01 1.257596634311257053e-02
1.001601281024819912e+02 1.213737456440765021e-02
1.005204163330664642e+02 1.170623776976389974e-02
1.008807045636509230e+02 1.128258091648222210e-02
1.012409927942353960e+02 1.086642838587616525e-02
1.016012810248198548e+02 1.045780399261273842e-02
1.019615692554043278e+02 1.005673099355393861e-02
1.023218574859887866e+02 9.663232096135994029e-03
1.026821457165732738e+02 9.277329466303808891e-03
1.030424339471577184e+02 8.899044736031489281e-03
1.034027221777422056e+02 8.528399010446481229e-03
1.037630104083266502e+02 8.165412874588230327e-03
1.041232986389111375e+02 7.810106399807933107e-03
1.044835868694955821e+02 7.462499149842532521e-03
1.048438751000800693e+02 7.122610186572080407e-03
1.052041633306645281e+02 6.790458075475860888e-03
1.055644515612490011e+02 6.466060890815683408e-03
1.059247397918334741e+02 6.149436220542457872e-03
1.062850280224179329e+02 5.840601170954749441e-03
1.066453162530024059e+02 5.539572371116194618e-03
1.070056044835868647e+02 5.246365977046575819e-03
1.073658927141713377e+02 4.960997675690533883e-03
1.077261809447558107e+02 4.683482688690861380e-03
1.080864691753402695e+02 4.413835775956458443e-03
1.084467574059247426e+02 4.152071239048615338e-03
1.088070456365092156e+02 3.898202924391724975e-03
1.091673338670936744e+02 3.652244226315488722e-03
1.095276220976781616e+02 3.414208089930499852e-03
1.098879103282626062e+02 3.184107013861584012e-03
1.102481985588470934e+02 2.961953052825364117e-03
1.106084867894315380e+02 2.747757820074092378e-03
1.109687750200160252e+02 2.541532489704078929e-03
1.113290632506004698e+02 2.343287798836790441e-03
1.116893514811849570e+02 2.153034049681206048e-03
1.120496397117694158e+02 1.970781111474377914e-03
1.124099279423538889e+02 1.796538422313939112e-03
1.127702161729383477e+02 1.630314990880676667e-03
1.131305044035228207e+02 1.472119398062659906e-03
1.134907926341072795e+02 1.321959798471976193e-03
1.138510808646917525e+02 1.179843921875102595e-03
1.142113690952762113e+02 1.045779074524251723e-03
1.145716573258606843e+02 9.197721404043168779e-04
1.149319455564451573e+02 8.018295823901782889e-04
1.152922337870296303e+02 6.919574433252845659e-04
1.156525220176141033e+02 5.901613470156865477e-04
1.160128102481985479e+02 4.964464991470209131e-04
1.163730984787830209e+02 4.108176881283701564e-04
1.167333867093675082e+02 3.332792858570330502e-04
1.170936749399519670e+02 2.638352484154843336e-04
1.174539631705364116e+02 2.024891166948475027e-04
1.178142514011208846e+02 1.492440169528840932e-04
1.181745396317053718e+02 1.041026612960228788e-04
1.185348278622898306e+02 6.706734810638289841e-05
1.188951160928743036e+02 3.813996239290896531e-05
1.192554043234587908e+02 1.732197608473628380e-05
1.196156925540432354e+02 4.614448251868805121e-06
1.199759807846276942e+02 1.802527485345901790e-08
1.203362690152121672e+02 3.532940936238324932e-06
1.206965572457966545e+02 1.515901646095393616e-05
1.210568454763811133e+02 3.489566048728240399e-05
1.214171337069655578e+02 6.274186897750922711e-05
1.217774219375500309e+02 9.869622506338300160e-05
1.221377101681345181e+02 1.427568988272560186e-04
1.224979983987189769e+02 1.949216470234169671e-04
1.228582866293034357e+02 2.551878127305934178e-04
1.232185748598879087e+02 3.235523249383163882e-04
1.235788630904723817e+02 4.000116980707848005e-04
1.239391513210568547e+02 4.845620314389895004e-04
1.242994395516413135e+02 5.771990086254623516e-04
1.246597277822258008e+02 6.779178968001223302e-04
1.250200160128102453e+02 7.867135459601612771e-04
1.253803042433947184e+02 9.035803880997170419e-04
1.257405924739791772e+02 1.028512436304386806e-03
1.261008807045636644e+02 1.161503283762212223e-03
1.264611689351481374e+02 1.302546102703361353e-03
1.268214571657325820e+02 1.451633643245805278e-03
1.271817453963170408e+02 1.608758232168454880e-03
1.275420336269015280e+02 1.773911771584688697e-03
1.279023218574860010e+02 1.947085737529736160e-03
1.282626100880704314e+02 2.128271178452744491e-03
1.286228983186549328e+02 2.317458713608585089e-03
1.289831865492394058e+02 2.514638531349759360e-03
1.293434747798238504e+02 2.719800387306841195e-03
1.297037630104083235e+02 2.932933602462033367e-03
1.300640512409928249e+02 3.154027061106528911e-03
1.304243394715772695e+02 3.383069208672071209e-03
1.307846277021617141e+02 3.620048049442680695e-03
1.311449159327461871e+02 3.864951144127847828e-03
1.315052041633306885e+02 4.117765607300976662e-03
1.318654923939151331e+02 4.378478104692673685e-03
1.322257806244996061e+02 4.647074850330367921e-03
1.325860688550840507e+02 4.923541603517573619e-03
1.329463570856685521e+02 5.207863665650970184e-03
1.333066453162530252e+02 5.500025876855364759e-03
1.336669335468374697e+02 5.800012612439017258e-03
1.340272217774219428e+02 6.107807779150328277e-03
1.343875100080064158e+02 6.423394811235171725e-03
1.347477982385908888e+02 6.746756666277033999e-03
1.351080864691753334e+02 7.077875820808772478e-03
1.354683746997598348e+02 7.416734265688772545e-03
1.358286629303442794e+02 7.763313501224922662e-03
1.361889511609287524e+02 8.117594532034260943e-03
1.365492393915131970e+02 8.479557861620017067e-03
1.369095276220976984e+02 8.849183486655877104e-03
1.372698158526821430e+02 9.226450890958328571e-03
1.376301040832666160e+02 9.611339039126063494e-03
1.379903923138510606e+02 1.000382636983478471e-02
1.383506805444355621e+02 1.040389078876204423e-02
1.387109687750200351e+02 1.081150966111924655e-02
1.390712570056044797e+02 1.122665980377460584e-02
1.394315452361889527e+02 1.164931747693640982e-02
1.397918334667734257e+02 1.207945837537260751e-02
1.401521216973578987e+02 1.251705761913794561e-02
1.405124099279423433e+02 1.296208974378402178e-02
1.408726981585268163e+02 1.341452869000958094e-02
1.412329863891112893e+02 1.387434779272891244e-02
1.415932746196957623e+02 1.434151976951339967e-02
1.419535628502802354e+02 1.481601670837251125e-02
1.423138510808647084e+02 1.529781005482647172e-02
1.426741393114491530e+02 1.578687059823242339e-02
1.430344275420336260e+02 1.628316845731038812e-02
1.433947157726180990e+02 1.678667306482231267e-02
