Theta (degrees)	Normalized Energy
0.000000000000000000e+00 9.992569510317553805e-01
3.602882305844675725e-01 9.992570166337584325e-01
7.205764611689351451e-01 9.992572134169586118e-01
1.080864691753402829e+00 9.992575413129357598e-01
1.441152922337870290e+00 9.992580002076800749e-01
1.801441152922337974e+00 9.992585899416323025e-01
2.161729383506805657e+00 9.992593103097293650e-01
2.522017614091273341e+00 9.992601610614763041e-01
2.882305844675740580e+00 9.992611419010243301e-01
3.242594075260207820e+00 9.992622524872643019e-01
3.602882305844675948e+00 9.992634924339429681e-01
3.963170536429143187e+00 9.992648613097806498e-01
4.323458767013611315e+00 9.992663586386169028e-01
4.683746997598078110e+00 9.992679838995606190e-01
5.044035228182546682e+00 9.992697365271582255e-01
5.404323458767013477e+00 9.992716159115802022e-01
5.764611689351481161e+00 9.992736213988144822e-01
6.124899919935949733e+00 9.992757522908816137e-01
6.485188150520415640e+00 9.992780078460585802e-01
6.845476381104885100e+00 9.992803872791204967e-01
7.205764611689351895e+00 9.992828897615949613e-01
7.566052842273819579e+00 9.992855144220311736e-01
7.926341072858286374e+00 9.992882603462831526e-01
8.286629303442753169e+00 9.992911265778076091e-01
8.646917534027222629e+00 9.992941121179729214e-01
9.007205764611688537e+00 9.992972159263872056e-01
9.367493995196156220e+00 9.993004369212356020e-01
9.727782225780625680e+00 9.993037739796339913e-01
1.008807045636509336e+01 9.993072259379953692e-01
1.044835868694956105e+01 9.993107915924082096e-01
1.080864691753402695e+01 9.993144696990328146e-01
1.116893514811849464e+01 9.993182589745084332e-01
1.152922337870296232e+01 9.993221580963733697e-01
1.188951160928743001e+01 9.993261657034960832e-01
1.224979983987189947e+01 9.993302803965260495e-01
1.261008807045636537e+01 9.993345007383512835e-01
1.297037630104083128e+01 9.993388252545740702e-01
1.333066453162530074e+01 9.993432524339930234e-01
1.369095276220977020e+01 9.993477807291043513e-01
1.405124099279423611e+01 9.993524085566120041e-01
1.441152922337870379e+01 9.993571342979513661e-01
1.477181745396317147e+01 9.993619562998243833e-01
1.513210568454763916e+01 9.993668728747499008e-01
1.549239391513210684e+01 9.993718823016207731e-01
1.585268214571657275e+01 9.993769828262765165e-01
1.621297037630104043e+01 9.993821726620910617e-01
1.657325860688550634e+01 9.993874499905607278e-01
1.693354683746997935e+01 9.993928129619197298e-01
1.729383506805444526e+01 9.993982596957511344e-01
1.765412329863891117e+01 9.994037882816196872e-01
1.801441152922337707e+01 9.994093967797118561e-01
1.837469975980784653e+01 9.994150832214869773e-01
1.873498799039231244e+01 9.994208456103369498e-01
1.909527622097677835e+01 9.994266819222623610e-01
1.945556445156125136e+01 9.994325901065502782e-01
1.981585268214571727e+01 9.994385680864701360e-01
2.017614091273018673e+01 9.994446137599749536e-01
2.053642914331465263e+01 9.994507250004117660e-01
2.089671737389912209e+01 9.994568996572485986e-01
2.125700560448358800e+01 9.994631355567969999e-01
2.161729383506805391e+01 9.994694305029599990e-01
2.197758206565252337e+01 9.994757822779736234e-01
2.233787029623698928e+01 9.994821886431705105e-01
2.269815852682145874e+01 9.994886473397420756e-01
2.305844675740592464e+01 9.994951560895110054e-01
2.341873498799039055e+01 9.995017125957192938e-01
2.377902321857486001e+01 9.995083145438093952e-01
2.413931144915932592e+01 9.995149596022275817e-01
2.449959967974379893e+01 9.995216454232269676e-01
2.485988791032826484e+01 9.995283696436749743e-01
2.522017614091273074e+01 9.995351298858780043e-01
2.558046437149719665e+01 9.995419237583964556e-01
2.594075260208166256e+01 9.995487488568851608e-01
2.630104083266613202e+01 9.995556027649227238e-01
2.666132906325060148e+01 9.995624830548570650e-01
2.702161729383506739e+01 9.995693872886518561e-01
2.738190552441954040e+01 9.995763130187381718e-01
2.774219375500400631e+01 9.995832577888756898e-01
2.810248198558847221e+01 9.995902191350077848e-01
2.846277021617293812e+01 9.995971945861359398e-01
2.882305844675740758e+01 9.996041816651839440e-01
2.918334667734187704e+01 9.996111778898731925e-01
2.954363490792634295e+01 9.996181807736012059e-01
2.990392313851080885e+01 9.996251878263218149e-01
3.026421136909527831e+01 9.996321965554254563e-01
3.062449959967974422e+01 9.996392044666281285e-01
3.098478783026421368e+01 9.996462090648552401e-01
3.134507606084867959e+01 9.996532078551365608e-01
3.170536429143314550e+01 9.996601983434910688e-01
3.206565252201760785e+01 9.996671780378226790e-01
3.242594075260208086e+01 9.996741444488113082e-01
3.278622898318654677e+01 9.996810950908093796e-01
3.314651721377101268e+01 9.996880274827310009e-01
3.350680544435548569e+01 9.996949391489490244e-01
3.386709367493995870e+01 9.997018276201866671e-01
3.422738190552442461e+01 9.997086904344119063e-01
3.458767013610889052e+01 9.997155251377216612e-01
3.494795836669335642e+01 9.997223292852432941e-01
3.530824659727782233e+01 9.997291004420114646e-01
3.566853482786228824e+01 9.997358361838598606e-01
3.602882305844675415e+01 9.997425340983018272e-01
3.638911128903122716e+01 9.997491917854124388e-01
3.674939951961569307e+01 9.997558068587054647e-01
3.710968775020015897e+01 9.997623769460057819e-01
3.746997598078462488e+01 9.997688996903201231e-01
3.783026421136909079e+01 9.997753727507038279e-01
3.819055244195355669e+01 9.997817938031192675e-01
3.855084067253803681e+01 9.997881605412934913e-01
3.891112890312250272e+01 9.997944706775698798e-01
3.927141713370696863e+01 9.998007219437525794e-01
3.963170536429143453e+01 9.998069120919454988e-01
3.999199359487590755e+01 9.998130388953850867e-01
4.035228182546037345e+01 9.998191001492690022e-01
4.071257005604483936e+01 9.998250936715732395e-01
4.107285828662930527e+01 9.998310173038655879e-01
4.143314651721377118e+01 9.998368689121081010e-01
4.179343474779824419e+01 9.998426463874563463e-01
4.215372297838271010e+01 9.998483476470474418e-01
4.251401120896717600e+01 9.998539706347759903e-01
4.287429943955164191e+01 9.998595133220686826e-01
4.323458767013610782e+01 9.998649737086445777e-01
4.359487590072058083e+01 9.998703498232631715e-01
4.395516413130504674e+01 9.998756397244725758e-01
4.431545236188951264e+01 9.998808415013327178e-01
4.467574059247397855e+01 9.998859532741447564e-01
4.503602882305844446e+01 9.998909731951524105e-01
4.539631705364291747e+01 9.998958994492470609e-01
4.575660528422738338e+01 9.999007302546502052e-01
4.611689351481184929e+01 9.999054638635905823e-01
4.647718174539631519e+01 9.999100985629683080e-01
4.683746997598078110e+01 9.999146326750013580e-01
4.719775820656525411e+01 9.999190645578680536e-01
4.755804643714972002e+01 9.999233926063283429e-01
4.791833466773418593e+01 9.999276152523366434e-01
4.827862289831865183e+01 9.999317309656394759e-01
4.863891112890311774e+01 9.999357382543605510e-01
4.899919935948759786e+01 9.999396356655670948e-01
4.935948759007206377e+01 9.999434217858305107e-01
4.971977582065652967e+01 9.999470952417628400e-01
5.008006405124099558e+01 9.999506547005455603e-01
5.044035228182546149e+01 9.999540988704395117e-01
5.080064051240992740e+01 9.999574265012789454e-01
5.116092874299439330e+01 9.999606363849548041e-01
5.152121697357885921e+01 9.999637273558770190e-01
5.188150520416332512e+01 9.999666982914215962e-01
5.224179343474779103e+01 9.999695481123657137e-01
5.260208166533226404e+01 9.999722757832983921e-01
5.296236989591673705e+01 9.999748803130250607e-01
5.332265812650120296e+01 9.999773607549463650e-01
5.368294635708566886e+01 9.999797162074239854e-01
5.404323458767013477e+01 9.999819458141269157e-01
5.440352281825460778e+01 9.999840487643670839e-01
5.476381104883908080e+01 9.999860242934062171e-01
5.512409927942354670e+01 9.999878716827578229e-01
5.548438751000801261e+01 9.999895902604590825e-01
5.584467574059247852e+01 9.999911794013335298e-01
5.620496397117694443e+01 9.999926385272359664e-01
5.656525220176141033e+01 9.999939671072715086e-01
5.692554043234587624e+01 9.999951646580022002e-01
5.728582866293034215e+01 9.999962307436379705e-01
5.764611689351481516e+01 9.999971649762007253e-01
5.800640512409927396e+01 9.999979670156766698e-01
5.836669335468375408e+01 9.999986365701505342e-01
5.872698158526820578e+01 9.999991733959141538e-01
5.908726981585268589e+01 9.999995772975646124e-01
5.944755804643715180e+01 9.999998481280796270e-01
5.980784627702161771e+01 9.999999857888711707e-01
6.016813450760608362e+01 9.999999902298292165e-01
6.052842273819055663e+01 9.999998614493363913e-01
6.088871096877501543e+01 9.999995994942727506e-01
6.124899919935948844e+01 9.999992044599926855e-01
6.160928742994395435e+01 9.999986764902920600e-01
6.196957566052842736e+01 9.999980157773510347e-01
6.232986389111290038e+01 9.999972225616586829e-01
6.269015212169735918e+01 9.999962971319226179e-01
6.305044035228183219e+01 9.999952398249514207e-01
6.341072858286629099e+01 9.999940510255296289e-01
6.377101681345076400e+01 9.999927311662670792e-01
6.413130504403521570e+01 9.999912807274303761e-01
6.449159327461970292e+01 9.999897002367544863e-01
6.485188150520416173e+01 9.999879902692440092e-01
6.521216973578863474e+01 9.999861514469473578e-01
6.557245796637309354e+01 9.999841844387136192e-01
6.593274619695756655e+01 9.999820899599389801e-01
6.629303442754202536e+01 9.999798687722848411e-01
6.665332265812651258e+01 9.999775216833878266e-01
6.701361088871097138e+01 9.999750495465444811e-01
6.737389911929544439e+01 9.999724532603830873e-01
6.773418734987991741e+01 9.999697337685180543e-01
6.809447558046437621e+01 9.999668920591829879e-01
6.845476381104884922e+01 9.999639291648517725e-01
6.881505204163330802e+01 9.999608461618400002e-01
6.917534027221778103e+01 9.999576441698899698e-01
6.953562850280223984e+01 9.999543243517438063e-01
6.989591673338671285e+01 9.999508879126897121e-01
7.025620496397117165e+01 9.999473361001030014e-01
7.061649319455564466e+01 9.999436702029662616e-01
7.097678142514011768e+01 9.999398915513767472e-01
7.133706965572457648e+01 9.999360015160335680e-01
7.169735788630904949e+01 9.999320015077115542e-01
7.205764611689350829e+01 9.999278929767279056e-01
7.241793434747798131e+01 9.999236774123801963e-01
7.277822257806245432e+01 9.999193563423819375e-01
7.313851080864691312e+01 9.999149313322758248e-01
7.349879903923138613e+01 9.999104039848426551e-01
7.385908726981585914e+01 9.999057759394847089e-01
7.421937550040031795e+01 9.999010488716061351e-01
7.457966373098479096e+01 9.998962244919721298e-01
7.493995196156924976e+01 9.998913045460632310e-01
7.530024019215372277e+01 9.998862908134110716e-01
7.566052842273818158e+01 9.998811851069243639e-01
7.602081665332265459e+01 9.998759892722038911e-01
7.638110488390711339e+01 9.998707051868416240e-01
7.674139311449158640e+01 9.998653347597167285e-01
7.710168134507607363e+01 9.998598799302697016e-01
7.746196957566053243e+01 9.998543426677771739e-01
7.782225780624500544e+01 9.998487249706085045e-01
7.818254603682946424e+01 9.998430288654747145e-01
7.854283426741393725e+01 9.998372564066680956e-01
7.890312249799839606e+01 9.998314096752927149e-01
7.926341072858286907e+01 9.998254907784867029e-01
7.962369895916732787e+01 9.998195018486307761e-01
7.998398718975181509e+01 9.998134450425573139e-01
8.034427542033625969e+01 9.998073225407415610e-01
8.070456365092074691e+01 9.998011365464939404e-01
8.106485188150520571e+01 9.997948892851389324e-01
8.142514011208967872e+01 9.997885830031888466e-01
8.178542834267413753e+01 9.997822199675138188e-01
8.214571657325861054e+01 9.997758024644989305e-01
8.250600480384308355e+01 9.997693327992014378e-01
8.286629303442754235e+01 9.997628132945016732e-01
8.322658126501201536e+01 9.997562462902449543e-01
8.358686949559648838e+01 9.997496341423799393e-01
8.394715772618094718e+01 9.997429792220982048e-01
8.430744595676542019e+01 9.997362839149577241e-01
8.466773418734987899e+01 9.997295506200158943e-01
8.502802241793435201e+01 9.997227817489480195e-01
8.538831064851881081e+01 9.997159797251707891e-01
8.574859887910328382e+01 9.997091469829553212e-01
8.610888710968774262e+01 9.997022859665436467e-01
8.646917534027221564e+01 9.996953991292617525e-01
8.682946357085667444e+01 9.996884889326286272e-01
8.718975180144116166e+01 9.996815578454669726e-01
8.755004003202560625e+01 9.996746083430072538e-01
8.791032826261009347e+01 9.996676429059980773e-01
8.827061649319456649e+01 9.996606640198131277e-01
8.863090472377902529e+01 9.996536741735547738e-01
8.899119295436349830e+01 9.996466758591606716e-01
8.935148118494795710e+01 9.996396715705142544e-01
8.971176941553243012e+01 9.996326638025492262e-01
9.007205764611688892e+01 9.996256550503584970e-01
9.043234587670136193e+01 9.996186478083082250e-01
9.079263410728583494e+01 9.996116445691456409e-01
9.115292233787029375e+01 9.996046478231167542e-01
9.151321056845476676e+01 9.995976600570809500e-01
9.187349879903922556e+01 9.995906837536311373e-01
9.223378702962369857e+01 9.995837213902180052e-01
9.259407526020817158e+01 9.995767754382736126e-01
9.295436349079263039e+01 9.995698483623427499e-01
9.331465172137711761e+01 9.995629426192153000e-01
9.367493995196156220e+01 9.995560606570638162e-01
9.403522818254604942e+01 9.995492049145863200e-01
9.439551641313050823e+01 9.995423778201546483e-01
9.475580464371498124e+01 9.995355817909645779e-01
9.511609287429944004e+01 9.995288192321939436e-01
9.547638110488391305e+01 9.995220925361661957e-01
9.583666933546837186e+01 9.995154040815183993e-01
9.619695756605284487e+01 9.995087562323786701e-01
9.655724579663730367e+01 9.995021513375464961e-01
9.691753402722177668e+01 9.994955917296787229e-01
9.727782225780623548e+01 9.994890797244905256e-01
9.763811048839070850e+01 9.994826176199532730e-01
9.799839871897519572e+01 9.994762076955053809e-01
9.835868694955964031e+01 9.994698522112718253e-01
9.871897518014412753e+01 9.994635534072866534e-01
9.907926341072857213e+01 9.994573135027307043e-01
9.943955164131305935e+01 9.994511346951686637e-01
9.979983987189750394e+01 9.994450191598053257e-01
1.001601281024819912e+02 9.994389690487411881e-01
1.005204163330664642e+02 9.994329864902434801e-01
1.008807045636509230e+02 9.994270735880205203e-01
1.012409927942353960e+02 9.994212324205123954e-01
1.016012810248198548e+02 9.994154650401900764e-01
1.019615692554043278e+02 9.994097734728526472e-01
1.023218574859887866e+02 9.994041597169572855e-01
1.026821457165732738e+02 9.993986257429361419e-01
1.030424339471577184e+02 9.993931734925378674e-01
1.034027221777422056e+02 9.993878048781773549e-01
1.037630104083266502e+02 9.993825217822902562e-01
1.041232986389111375e+02 9.993773260567081484e-01
1.044835868694955821e+02 9.993722195220345883e-01
1.048438751000800693e+02 9.993672039670425944e-01
1.052041633306645281e+02 9.993622811480736834e-01
1.055644515612490011e+02 9.993574527884556691e-01
1.059247397918334741e+02 9.993527205779305644e-01
1.062850280224179329e+02 9.993480861720910324e-01
1.066453162530024059e+02 9.993435511918362657e-01
1.070056044835868647e+02 9.993391172228276442e-01
1.073658927141713377e+02 9.993347858149724816e-01
1.077261809447558107e+02 9.993305584819068832e-01
1.080864691753402695e+02 9.993264367004992543e-01
1.084467574059247426e+02 9.993224219103606920e-01
1.088070456365092156e+02 9.993185155133739173e-01
1.091673338670936744e+02 9.993147188732316444e-01
1.095276220976781616e+02 9.993110333149880509e-01
1.098879103282626062e+02 9.993074601246250133e-01
1.102481985588470934e+02 9.993040005486286681e-01
1.106084867894315380e+02 9.993006557935842915e-01
1.109687750200160252e+02 9.992974270257789504e-01
1.113290632506004698e+02 9.992943153708228055e-01
1.116893514811849570e+02 9.992913219132796288e-01
1.120496397117694158e+02 9.992884476963140861e-01
1.124099279423538889e+02 9.992856937213508983e-01
1.127702161729383477e+02 9.992830609477499904e-01
1.131305044035228207e+02 9.992805502924919647e-01
1.134907926341072795e+02 9.992781626298845588e-01
1.138510808646917525e+02 9.992758987912728763e-01
1.142113690952762113e+02 9.992737595647730453e-01
1.145716573258606843e+02 9.992717456950160893e-01
1.149319455564451573e+02 9.992698578829054545e-01
1.152922337870296303e+02 9.992680967853904139e-01
1.156525220176141033e+02 9.992664630152527927e-01
1.160128102481985479e+02 9.992649571409105702e-01
1.163730984787830209e+02 9.992635796862298081e-01
1.167333867093675082e+02 9.992623311303594491e-01
1.170936749399519670e+02 9.992612119075741095e-01
1.174539631705364116e+02 9.992602224071351902e-01
1.178142514011208846e+02 9.992593629731627569e-01
1.181745396317053718e+02 9.992586339045266275e-01
1.185348278622898306e+02 9.992580354547490051e-01
1.188951160928743036e+02 9.992575678319225441e-01
1.192554043234587908e+02 9.992572311986432920e-01
1.196156925540432354e+02 9.992570256719589539e-01
1.199759807846276942e+02 9.992569513233281464e-01
1.203362690152121672e+02 9.992570081786026348e-01
1.206965572457966545e+02 9.992571962180134548e-01
1.210568454763811133e+02 9.992575153761812379e-01
1.214171337069655578e+02 9.992579655421356399e-01
1.217774219375500309e+02 9.992585465593503136e-01
1.221377101681345181e+02 9.992592582257957545e-01
1.224979983987189769e+02 9.992601002940026955e-01
1.228582866293034357e+02 9.992610724711421533e-01
1.232185748598879087e+02 9.992621744191205746e-01
1.235788630904723817e+02 9.992634057546901927e-01
1.239391513210568547e+02 9.992647660495692641e-01
1.242994395516413135e+02 9.992662548305835113e-01
1.246597277822258008e+02 9.992678715798201106e-01
1.250200160128102453e+02 9.992696157347898955e-01
1.253803042433947184e+02 9.992714866886158731e-01
1.257405924739791772e+02 9.992734837902260692e-01
1.261008807045636644e+02 9.992756063445648040e-01
1.264611689351481374e+02 9.992778536128170686e-01
1.268214571657325820e+02 9.992802248126512188e-01
1.271817453963170408e+02 9.992827191184693314e-01
1.275420336269015280e+02 9.992853356616770988e-01
1.279023218574860010e+02 9.992880735309667140e-01
1.282626100880704314e+02 9.992909317726105245e-01
1.286228983186549328e+02 9.992939093907740045e-01
1.289831865492394058e+02 9.992970053478390513e-01
1.293434747798238504e+02 9.993002185647402724e-01
1.297037630104083235e+02 9.993035479213210337e-01
1.300640512409928249e+02 9.993069922566952812e-01
1.304243394715772695e+02 9.993105503696291247e-01
1.307846277021617141e+02 9.993142210189316366e-01
1.311449159327461871e+02 9.993180029238641904e-01
1.315052041633306885e+02 9.993218947645571282e-01
1.318654923939151331e+02 9.993258951824440794e-01
1.322257806244996061e+02 9.993300027807086039e-01
1.325860688550840507e+02 9.993342161247410482e-01
1.329463570856685521e+02 9.993385337426147208e-01
1.333066453162530252e+02 9.993429541255663962e-01
1.336669335468374697e+02 9.993474757284964705e-01
1.340272217774219428e+02 9.993520969704795531e-01
1.343875100080064158e+02 9.993568162352844952e-01
1.347477982385908888e+02 9.993616318719131808e-01
1.351080864691753334e+02 9.993665421951444250e-01
1.354683746997598348e+02 9.993715454860965242e-01
1.358286629303442794e+02 9.993766399927954680e-01
1.361889511609287524e+02 9.993818239307584728e-01
1.365492393915131970e+02 9.993870954835902820e-01
1.369095276220976984e+02 9.993924528035894594e-01
1.372698158526821430e+02 9.993978940123627863e-01
1.376301040832666160e+02 9.994034172014570894e-01
1.379903923138510606e+02 9.994090204329978411e-01
1.383506805444355621e+02 9.994147017403368638e-01
1.387109687750200351e+02 9.994204591287182415e-01
1.390712570056044797e+02 9.994262905759462301e-01
1.394315452361889527e+02 9.994321940330689324e-01
1.397918334667734257e+02 9.994381674250671921e-01
1.401521216973578987e+02 9.994442086515599177e-01
1.405124099279423433e+02 9.994503155875142930e-01
1.408726981585268163e+02 9.994564860839644238e-01
1.412329863891112893e+02 9.994627179687451957e-01
1.415932746196957623e+02 9.994690090472281296e-01
1.419535628502802354e+02 9.994753571030723371e-01
1.423138510808647084e+02 9.994817598989788054e-01
1.426741393114491530e+02 9.994882151774581169e-01
1.430344275420336260e+02 9.994947206616013879e-01
1.433947157726180990e+02 9.995012740558616438e-01
