Theta (degrees)	Normalized Energy
0.000000000000000000e+00 4.365545845501936582e-16
1.801801801801801717e-01 1.014326677528890198e-06
3.603603603603603434e-01 4.057293806362391901e-06
5.405405405405404595e-01 9.128862678587914021e-06
7.207207207207206867e-01 1.622896877980516104e-05
9.009009009009008029e-01 2.535752178461505194e-05
1.081081081081080919e+00 3.651440555458248020e-05
1.261261261261261035e+00 4.969947813641734016e-05
1.441441441441441373e+00 6.491257175026030025e-05
1.621621621621621712e+00 8.215349279048314070e-05
1.801801801801801606e+00 1.014220218114280086e-04
1.981981981981981944e+00 1.227179135252245935e-04
2.162162162162161838e+00 1.460408967873839134e-04
2.342342342342341954e+00 1.713906745900316188e-04
2.522522522522522070e+00 1.987669240463375625e-04
2.702702702702702631e+00 2.281692963825851582e-04
2.882882882882882747e+00 2.595974169215821393e-04
3.063063063063062419e+00 2.930508850686909658e-04
3.243243243243243423e+00 3.285292742973497382e-04
3.423423423423423095e+00 3.660321321302274626e-04
3.603603603603603212e+00 4.055589801245995728e-04
3.783783783783783328e+00 4.471093138489923725e-04
3.963963963963963888e+00 4.906826028681944823e-04
4.144144144144143560e+00 5.362782907185914029e-04
4.324324324324323676e+00 5.838957948874294980e-04
4.504504504504503792e+00 6.335345067903333819e-04
4.684684684684683909e+00 6.851937917448939954e-04
4.864864864864864913e+00 7.388729889465857651e-04
5.045045045045044141e+00 7.945714114412635387e-04
5.225225225225224257e+00 8.522883460978048029e-04
5.405405405405405261e+00 9.120230535790796282e-04
5.585585585585585378e+00 9.737747683119003794e-04
5.765765765765765494e+00 1.037542698450424038e-03
5.945945945945945610e+00 1.103326025854834292e-03
6.126126126126124838e+00 1.171123906043538198e-03
6.306306306306305842e+00 1.240935468168428155e-03
6.486486486486486847e+00 1.312759814971008795e-03
6.666666666666666075e+00 1.386596022748999872e-03
6.846846846846846191e+00 1.462443141314645218e-03
7.027027027027027195e+00 1.540300193953823144e-03
7.207207207207206423e+00 1.620166177385081807e-03
7.387387387387387427e+00 1.702040061715402470e-03
7.567567567567566655e+00 1.785920790392541650e-03
7.747747747747746772e+00 1.871807280164432957e-03
7.927927927927927776e+00 1.959698421023669656e-03
8.108108108108107004e+00 2.049593076163996712e-03
8.288288288288287120e+00 2.141490081925376873e-03
8.468468468468467236e+00 2.235388247742550044e-03
8.648648648648647352e+00 2.331286356089663520e-03
8.828828828828829245e+00 2.429183162425411352e-03
9.009009009009007585e+00 2.529077395133518587e-03
9.189189189189187701e+00 2.630967755463804909e-03
9.369369369369367817e+00 2.734852917471068158e-03
9.549549549549547933e+00 2.840731527951928254e-03
9.729729729729729826e+00 2.948602206379054725e-03
9.909909909909908166e+00 3.058463544833644326e-03
1.009009009009008828e+01 3.170314107939138561e-03
1.027027027027027017e+01 3.284152432786645315e-03
1.045045045045044851e+01 3.399977028864436222e-03
1.063063063063063041e+01 3.517786377981766289e-03
1.081081081081081052e+01 3.637578934192186534e-03
1.099099099099099064e+01 3.759353123714819639e-03
1.117117117117117076e+01 3.883107344851775833e-03
1.135135135135134909e+01 4.008839967903536985e-03
1.153153153153153099e+01 4.136549335085645644e-03
1.171171171171171110e+01 4.266233760436811094e-03
1.189189189189189122e+01 4.397891529730506115e-03
1.207207207207207311e+01 4.531520900380599758e-03
1.225225225225224968e+01 4.667120101343495524e-03
1.243243243243243157e+01 4.804687333022888106e-03
1.261261261261261168e+01 4.944220767165287064e-03
1.279279279279279180e+01 5.085718546758945767e-03
1.297297297297297369e+01 5.229178785922474794e-03
1.315315315315315381e+01 5.374599569799409782e-03
1.333333333333333215e+01 5.521978954443836768e-03
1.351351351351351227e+01 5.671314966702520333e-03
1.369369369369369238e+01 5.822605604099143767e-03
1.387387387387387427e+01 5.975848834710766402e-03
1.405405405405405439e+01 6.131042597040492308e-03
1.423423423423423273e+01 6.288184799892401929e-03
1.441441441441441285e+01 6.447273322234829858e-03
1.459459459459459296e+01 6.608306013069335100e-03
1.477477477477477485e+01 6.771280691285830843e-03
1.495495495495495497e+01 6.936195145525218646e-03
1.513513513513513331e+01 7.103047134025135961e-03
1.531531531531531520e+01 7.271834384476553483e-03
1.549549549549549354e+01 7.442554593863406898e-03
1.567567567567567544e+01 7.615205428304935679e-03
1.585585585585585555e+01 7.789784522892259123e-03
1.603603603603603744e+01 7.966289481520161947e-03
1.621621621621621401e+01 8.144717876715234367e-03
1.639639639639639412e+01 8.325067249457179103e-03
1.657657657657657424e+01 8.507335109000258022e-03
1.675675675675675791e+01 8.691518932681351062e-03
1.693693693693693447e+01 8.877616165733556719e-03
1.711711711711711814e+01 9.065624221086747425e-03
1.729729729729729470e+01 9.255540479163271161e-03
1.747747747747747482e+01 9.447362287675313205e-03
1.765765765765765849e+01 9.641086961405890762e-03
1.783783783783783861e+01 9.836711781992905912e-03
1.801801801801801517e+01 1.003423399770519454e-02
1.819819819819819884e+01 1.023365082320634549e-02
1.837837837837837540e+01 1.043495943932238462e-02
1.855855855855855907e+01 1.063815699279613801e-02
1.873873873873873563e+01 1.084324059603337768e-02
1.891891891891891930e+01 1.105020732684976366e-02
1.909909909909909587e+01 1.125905422820338252e-02
1.927927927927927598e+01 1.146977830792437168e-02
1.945945945945945965e+01 1.168237653843327666e-02
1.963963963963963977e+01 1.189684585645713402e-02
1.981981981981981633e+01 1.211318316273174954e-02
2.000000000000000000e+01 1.233138532169792724e-02
2.018018018018017656e+01 1.255144916119275110e-02
2.036036036036036023e+01 1.277337147212602268e-02
2.054054054054054035e+01 1.299714900815445405e-02
2.072072072072071691e+01 1.322277848533802078e-02
2.090090090090089703e+01 1.345025658179631670e-02
2.108108108108108070e+01 1.367957993734884338e-02
2.126126126126126081e+01 1.391074515314691222e-02
2.144144144144144093e+01 1.414374879129654330e-02
2.162162162162162105e+01 1.437858737446621148e-02
2.180180180180180116e+01 1.461525738548972997e-02
2.198198198198198128e+01 1.485375526695495267e-02
2.216216216216215784e+01 1.509407742077695236e-02
2.234234234234234151e+01 1.533622020776446299e-02
2.252252252252251807e+01 1.558017994717400892e-02
2.270270270270269819e+01 1.582595291624445955e-02
2.288288288288288186e+01 1.607353534972475601e-02
2.306306306306306197e+01 1.632292343938664125e-02
2.324324324324324209e+01 1.657411333352152780e-02
2.342342342342342221e+01 1.682710113642282498e-02
2.360360360360360232e+01 1.708188290785493321e-02
2.378378378378378244e+01 1.733845466250464804e-02
2.396396396396396256e+01 1.759681236941523785e-02
2.414414414414414622e+01 1.785695195141099104e-02
2.432432432432431924e+01 1.811886928449374726e-02
2.450450450450449935e+01 1.838256019723005785e-02
2.468468468468468302e+01 1.864802047011540967e-02
2.486486486486486314e+01 1.891524583492354417e-02
2.504504504504504325e+01 1.918423197403110181e-02
2.522522522522522337e+01 1.945497451972409003e-02
2.540540540540540349e+01 1.972746905348672988e-02
2.558558558558558360e+01 2.000171110526215851e-02
2.576576576576576372e+01 2.027769615269637421e-02
2.594594594594594739e+01 2.055541962035485268e-02
2.612612612612612040e+01 2.083487687891761794e-02
2.630630630630630762e+01 2.111606324434969068e-02
2.648648648648648418e+01 2.139897397704227169e-02
2.666666666666666430e+01 2.168360428093174877e-02
2.684684684684684441e+01 2.196994930258826251e-02
2.702702702702702453e+01 2.225800413027709951e-02
2.720720720720720465e+01 2.254776379298911379e-02
2.738738738738738476e+01 2.283922325944370835e-02
2.756756756756756488e+01 2.313237743705331279e-02
2.774774774774774855e+01 2.342722117086535119e-02
2.792792792792792156e+01 2.372374924245918351e-02
2.810810810810810878e+01 2.402195636881748059e-02
2.828828828828828534e+01 2.432183720115240269e-02
2.846846846846846546e+01 2.462338632370135796e-02
2.864864864864864558e+01 2.492659825247795294e-02
2.882882882882882569e+01 2.523146743398757552e-02
2.900900900900900581e+01 2.553798824389210895e-02
2.918918918918918592e+01 2.584615498564454827e-02
2.936936936936936249e+01 2.615596188906270034e-02
2.954954954954954971e+01 2.646740310886716227e-02
2.972972972972972983e+01 2.678047272316573871e-02
2.990990990990990994e+01 2.709516473188747221e-02
3.009009009009008651e+01 2.741147305516518015e-02
3.027027027027026662e+01 2.772939153166077697e-02
3.045045045045044674e+01 2.804891391683848184e-02
3.063063063063063041e+01 2.837003388117260300e-02
3.081081081081081408e+01 2.869274500830180236e-02
3.099099099099098709e+01 2.901704079310976972e-02
3.117117117117117076e+01 2.934291463975302605e-02
3.135135135135135087e+01 2.967035985960510269e-02
3.153153153153152743e+01 2.999936966914151446e-02
3.171171171171171110e+01 3.032993718774404032e-02
3.189189189189189122e+01 3.066205543542903020e-02
3.207207207207207489e+01 3.099571733049546682e-02
3.225225225225224790e+01 3.133091568709168995e-02
3.243243243243242802e+01 3.166764321269015248e-02
3.261261261261260813e+01 3.200589250547722364e-02
3.279279279279278825e+01 3.234565605164464730e-02
3.297297297297297547e+01 3.268692622258586450e-02
3.315315315315314848e+01 3.302969527198893612e-02
3.333333333333332860e+01 3.337395533282098287e-02
3.351351351351351582e+01 3.371969841420652952e-02
3.369369369369368883e+01 3.406691639818867218e-02
3.387387387387386894e+01 3.441560103636584489e-02
3.405405405405405617e+01 3.476574394641045868e-02
3.423423423423423628e+01 3.511733660845135080e-02
3.441441441441441640e+01 3.547037036132336119e-02
3.459459459459458941e+01 3.582483639867109493e-02
3.477477477477476953e+01 3.618072576490999337e-02
3.495495495495494964e+01 3.653802935102742205e-02
3.513513513513512976e+01 3.689673789022565598e-02
3.531531531531531698e+01 3.725684195339614563e-02
3.549549549549549710e+01 3.761833194441594613e-02
3.567567567567567721e+01 3.798119809526462332e-02
3.585585585585585022e+01 3.834543046094382457e-02
3.603603603603603034e+01 3.871101891420491298e-02
3.621621621621621046e+01 3.907795314005628462e-02
3.639639639639639768e+01 3.944622263006324764e-02
3.657657657657657779e+01 3.981581667641231892e-02
3.675675675675675080e+01 4.018672436573925144e-02
3.693693693693693803e+01 4.055893457270716429e-02
3.711711711711711814e+01 4.093243595332168860e-02
3.729729729729729115e+01 4.130721693797635014e-02
3.747747747747747127e+01 4.168326572420840564e-02
3.765765765765765849e+01 4.206057026915672320e-02
3.783783783783783861e+01 4.243911828170854328e-02
3.801801801801801162e+01 4.281889721431399176e-02
3.819819819819819173e+01 4.319989425446009446e-02
3.837837837837837185e+01 4.358209631578435078e-02
3.855855855855855197e+01 4.396549002881287860e-02
3.873873873873873919e+01 4.435006173129710239e-02
3.891891891891891930e+01 4.473579745814726394e-02
3.909909909909909942e+01 4.512268293092119159e-02
3.927927927927927954e+01 4.551070354686410913e-02
3.945945945945945255e+01 4.589984436746987612e-02
3.963963963963963266e+01 4.629009010654104583e-02
3.981981981981981988e+01 4.668142511772362113e-02
4.000000000000000000e+01 4.707383338148980745e-02
4.018018018018018012e+01 4.746729849154301961e-02
4.036036036036035313e+01 4.786180364061781711e-02
4.054054054054054035e+01 4.825733160563234342e-02
4.072072072072072046e+01 4.865386473218679536e-02
4.090090090090090058e+01 4.905138491834259984e-02
4.108108108108108070e+01 4.944987359766785801e-02
4.126126126126126081e+01 4.984931172151224610e-02
4.144144144144143382e+01 5.024967974045246172e-02
4.162162162162162105e+01 5.065095758489190220e-02
4.180180180180179406e+01 5.105312464474717760e-02
4.198198198198197417e+01 5.145615974819434807e-02
4.216216216216216139e+01 5.186004113940859139e-02
4.234234234234234151e+01 5.226474645526343193e-02
4.252252252252252163e+01 5.267025270091494488e-02
4.270270270270269464e+01 5.307653622423342404e-02
4.288288288288288186e+01 5.348357268900430506e-02
4.306306306306305487e+01 5.389133704684898746e-02
4.324324324324324209e+01 5.429980350778451648e-02
4.342342342342342931e+01 5.470894550936408057e-02
4.360360360360360232e+01 5.511873568431095716e-02
4.378378378378377533e+01 5.552914582657755144e-02
4.396396396396396256e+01 5.594014685573511086e-02
4.414414414414414267e+01 5.635170877961959146e-02
4.432432432432431568e+01 5.676380065512577622e-02
4.450450450450450290e+01 5.717639054706970259e-02
4.468468468468468302e+01 5.758944548499771859e-02
4.486486486486486314e+01 5.800293141785065054e-02
4.504504504504503615e+01 5.841681316636288673e-02
4.522522522522522337e+01 5.883105437307501601e-02
4.540540540540539638e+01 5.924561744984082473e-02
4.558558558558558360e+01 5.966046352269281650e-02
4.576576576576576372e+01 6.007555237393375630e-02
4.594594594594594383e+01 6.049084238130692653e-02
4.612612612612612395e+01 6.090629045409166192e-02
4.630630630630629696e+01 6.132185196598034793e-02
4.648648648648648418e+01 6.173748068455559013e-02
4.666666666666665719e+01 6.215312869721126288e-02
4.684684684684684441e+01 6.256874633333528446e-02
4.702702702702703164e+01 6.298428208256895422e-02
4.720720720720720465e+01 6.339968250895519630e-02
4.738738738738738476e+01 6.381489216078166382e-02
4.756756756756756488e+01 6.422985347591518568e-02
4.774774774774774500e+01 6.464450668241927822e-02
4.792792792792792511e+01 6.505878969425107905e-02
4.810810810810810523e+01 6.547263800181660209e-02
4.828828828828829245e+01 6.588598455717362135e-02
4.846846846846846546e+01 6.629875965366459345e-02
4.864864864864863847e+01 6.671089079976395830e-02
4.882882882882882569e+01 6.712230258692923612e-02
4.900900900900899870e+01 6.753291655125137627e-02
4.918918918918918592e+01 6.794265102870498951e-02
4.936936936936936604e+01 6.835142100381735863e-02
4.954954954954954616e+01 6.875913795158627995e-02
4.972972972972972627e+01 6.916570967250747215e-02
4.990990990990989928e+01 6.957104012058565323e-02
5.009009009009008651e+01 6.997502922424672644e-02
5.027027027027027373e+01 7.037757270012277855e-02
5.045045045045044674e+01 7.077856185969612357e-02
5.063063063063063396e+01 7.117788340889061316e-02
5.081081081081080697e+01 7.157541924074407869e-02
5.099099099099098709e+01 7.197104622138873753e-02
5.117117117117116720e+01 7.236463596966603851e-02
5.135135135135135442e+01 7.275605463082525370e-02
5.153153153153152743e+01 7.314516264487144759e-02
5.171171171171170755e+01 7.353181451030828264e-02
5.189189189189189477e+01 7.391585854417746793e-02
5.207207207207206778e+01 7.429713663951674485e-02
5.225225225225224079e+01 7.467548402157002385e-02
5.243243243243242802e+01 7.505072900436456085e-02
5.261261261261261524e+01 7.542269274953844471e-02
5.279279279279278825e+01 7.579118902964734894e-02
5.297297297297296836e+01 7.615602399851892357e-02
5.315315315315314848e+01 7.651699597162678335e-02
5.333333333333332860e+01 7.687389521989745900e-02
5.351351351351350161e+01 7.722650378080390954e-02
5.369369369369368883e+01 7.757459529112308017e-02
5.387387387387387605e+01 7.791793484624971733e-02
5.405405405405404906e+01 7.825627889151415273e-02
5.423423423423423628e+01 7.858937515152811248e-02
5.441441441441440929e+01 7.891696260414578223e-02
5.459459459459458941e+01 7.923877150620306509e-02
5.477477477477476953e+01 7.955452347874021612e-02
5.495495495495495675e+01 7.986393165990547660e-02
5.513513513513512976e+01 8.016670093416214393e-02
5.531531531531530987e+01 8.046252824674496318e-02
5.549549549549549710e+01 8.075110301249041611e-02
5.567567567567567011e+01 8.103210762818985335e-02
5.585585585585584312e+01 8.130521809739427175e-02
5.603603603603603034e+01 8.157010477614375088e-02
5.621621621621621756e+01 8.182643324731472823e-02
5.639639639639639057e+01 8.207386533016582109e-02
5.657657657657657069e+01 8.231206023015069650e-02
5.675675675675675080e+01 8.254067583214057258e-02
5.693693693693693092e+01 8.275937013782880269e-02
5.711711711711711814e+01 8.296780284529178817e-02
5.729729729729729115e+01 8.316563706542012824e-02
5.747747747747747837e+01 8.335254116632724586e-02
5.765765765765765138e+01 8.352819073288586527e-02
5.783783783783783150e+01 8.369227062435526110e-02
5.801801801801801162e+01 8.384447710882284022e-02
5.819819819819819173e+01 8.398452004892680012e-02
5.837837837837837185e+01 8.411212510940280218e-02
5.855855855855855197e+01 8.422703595343858374e-02
5.873873873873872498e+01 8.432901639194453902e-02
5.891891891891891930e+01 8.441785244783153730e-02
5.909909909909909942e+01 8.449335429638193951e-02
5.927927927927927954e+01 8.455535804300592928e-02
5.945945945945945965e+01 8.460372730115242601e-02
5.963963963963963266e+01 8.463835453596731118e-02
5.981981981981981988e+01 8.465916214340579726e-02
5.999999999999999289e+01 8.466610323982082242e-02
6.018018018018017301e+01 8.465916214340564461e-02
6.036036036036035313e+01 8.463835453596738057e-02
6.054054054054053324e+01 8.460372730115213458e-02
6.072072072072070625e+01 8.455535804300556846e-02
6.090090090090089348e+01 8.449335429638193951e-02
6.108108108108106649e+01 8.441785244783132913e-02
6.126126126126126081e+01 8.432901639194433085e-02
6.144144144144144093e+01 8.422703595343829230e-02
6.162162162162162815e+01 8.411212510940280218e-02
6.180180180180180116e+01 8.398452004892636991e-02
6.198198198198197417e+01 8.384447710882297899e-02
6.216216216216216139e+01 8.369227062435519171e-02
6.234234234234234151e+01 8.352819073288536567e-02
6.252252252252251452e+01 8.335254116632724586e-02
6.270270270270270174e+01 8.316563706541976742e-02
6.288288288288287475e+01 8.296780284529185756e-02
6.306306306306305487e+01 8.275937013782866392e-02
6.324324324324323499e+01 8.254067583214043380e-02
6.342342342342342221e+01 8.231206023015105733e-02
6.360360360360360943e+01 8.207386533016575170e-02
6.378378378378378244e+01 8.182643324731495027e-02
6.396396396396396256e+01 8.157010477614382027e-02
6.414414414414414978e+01 8.130521809739398031e-02
6.432432432432432279e+01 8.103210762818963131e-02
6.450450450450449580e+01 8.075110301249056877e-02
6.468468468468468302e+01 8.046252824674532400e-02
6.486486486486485603e+01 8.016670093416214393e-02
6.504504504504502904e+01 7.986393165990511578e-02
6.522522522522521626e+01 7.955452347874000796e-02
6.540540540540538927e+01 7.923877150620306509e-02
6.558558558558557650e+01 7.891696260414585162e-02
6.576576576576576372e+01 7.858937515152825126e-02
6.594594594594595094e+01 7.825627889151363925e-02
6.612612612612612395e+01 7.791793484624898181e-02
6.630630630630629696e+01 7.757459529112287200e-02
6.648648648648648418e+01 7.722650378080354872e-02
6.666666666666665719e+01 7.687389521989737573e-02
6.684684684684684441e+01 7.651699597162640865e-02
6.702702702702703164e+01 7.615602399851842397e-02
6.720720720720720465e+01 7.579118902964770976e-02
6.738738738738737766e+01 7.542269274953801450e-02
6.756756756756756488e+01 7.505072900436426941e-02
6.774774774774773789e+01 7.467548402156987120e-02
6.792792792792791090e+01 7.429713663951674485e-02
6.810810810810811233e+01 7.391585854417746793e-02
6.828828828828828534e+01 7.353181451030763038e-02
6.846846846846847257e+01 7.314516264487115615e-02
6.864864864864864558e+01 7.275605463082504554e-02
6.882882882882883280e+01 7.236463596966567768e-02
6.900900900900900581e+01 7.197104622138822405e-02
6.918918918918917882e+01 7.157541924074385664e-02
6.936936936936936604e+01 7.117788340889040499e-02
6.954954954954953905e+01 7.077856185969583214e-02
6.972972972972972627e+01 7.037757270012270916e-02
6.990990990990989928e+01 6.997502922424665706e-02
7.009009009009008651e+01 6.957104012058500098e-02
7.027027027027025952e+01 6.916570967250747215e-02
7.045045045045044674e+01 6.875913795158576647e-02
7.063063063063063396e+01 6.835142100381649821e-02
7.081081081081080697e+01 6.794265102870462869e-02
7.099099099099099419e+01 6.753291655125129300e-02
7.117117117117116720e+01 6.712230258692916673e-02
7.135135135135135442e+01 6.671089079976359748e-02
7.153153153153152743e+01 6.629875965366459345e-02
7.171171171171170045e+01 6.588598455717332991e-02
