Theta (degrees)	Normalized Energy
0.000000000000000000e+00 0.000000000000000000e+00
5.402701350675338521e-01 1.985195241911407989e-04
1.080540270135067704e+00 7.939228922643389854e-04
1.620810405202601334e+00 1.785744603913390349e-03
2.161080540270135408e+00 3.173209202217840749e-03
2.701350675337669038e+00 4.955231834523536258e-03
3.241620810405202668e+00 7.130419038537083067e-03
3.781890945472736743e+00 9.697069759509355583e-03
4.322161080540270817e+00 1.265317657970760519e-02
4.862431215607804447e+00 1.599642718446007625e-02
5.402701350675338077e+00 1.972420603657245447e-02
5.942971485742871707e+00 2.383359628496678484e-02
6.483241620810405337e+00 2.832138188560897468e-02
7.023511755877938967e+00 3.318404994725850793e-02
7.563781890945473485e+00 3.841779329616529237e-02
8.104052026013006227e+00 4.401851325031330697e-02
8.644322161080541633e+00 4.998182262240328383e-02
9.184592296148075263e+00 5.630304892572372821e-02
9.724862431215608893e+00 6.297723779779401676e-02
1.026513256628314252e+01 6.999915663747104111e-02
1.080540270135067615e+01 7.736329844611938844e-02
1.134567283641820978e+01 8.506388588106988946e-02
1.188594297148574341e+01 9.309487550961670355e-02
1.242621310655327704e+01 1.014499622686443198e-01
1.296648324162081067e+01 1.101225841236178615e-01
1.350675337668834608e+01 1.191059269281117688e-01
1.404702351175587793e+01 1.283929294733014148e-01
1.458729364682341156e+01 1.379762887379931136e-01
1.512756378189094697e+01 1.478484653196084908e-01
1.566783391695848060e+01 1.580016890578737065e-01
1.620810405202601245e+01 1.684279648378965155e-01
1.674837418709354608e+01 1.791190785781143768e-01
1.728864432216108327e+01 1.900666033917553788e-01
1.782891445722861690e+01 2.012619059175032865e-01
1.836918459229615053e+01 2.126961528303336069e-01
1.890945472736368416e+01 2.243603175031453345e-01
1.944972486243121779e+01 2.362451868430799629e-01
1.998999499749875142e+01 2.483413682747195594e-01
2.053026513256628505e+01 2.606392968862218384e-01
2.107053526763381868e+01 2.731292427066669970e-01
2.161080540270135231e+01 2.858013181490836607e-01
2.215107553776888594e+01 2.986454855752861959e-01
2.269134567283641957e+01 3.116515649993652493e-01
2.323161580790394964e+01 3.248092419196483838e-01
2.377188594297148683e+01 3.381080752795220801e-01
2.431215607803902046e+01 3.515375055347899624e-01
2.485242621310655409e+01 3.650868628436251817e-01
2.539269634817408772e+01 3.787453753583593374e-01
2.593296648324162135e+01 3.925021776179316579e-01
2.647323661830915853e+01 4.063463190382576862e-01
2.701350675337669216e+01 4.202667724875913113e-01
2.755377688844422224e+01 4.342524429468812008e-01
2.809404702351175587e+01 4.482921762449365022e-01
2.863431715857928950e+01 4.623747678637035730e-01
2.917458729364682313e+01 4.764889718062104151e-01
2.971485742871436031e+01 4.906235095205206398e-01
3.025512756378189394e+01 5.047670788738226610e-01
3.079539769884942402e+01 5.189083631660776907e-01
3.133566783391696120e+01 5.330360401847934471e-01
3.187593796898449128e+01 5.471387912789911212e-01
3.241620810405202491e+01 5.612053104613721199e-01
3.295647823911956209e+01 5.752243135187098400e-01
3.349674837418709217e+01 5.891845471332094464e-01
3.403701850925462935e+01 6.030747979960330296e-01
3.457728864432216653e+01 6.168839019153417036e-01
3.511755877938969661e+01 6.306007529051459448e-01
3.565782891445723379e+01 6.442143122526130528e-01
3.619809904952476387e+01 6.577136175465989609e-01
3.673836918459230105e+01 6.710877916713212654e-01
3.727863931965983113e+01 6.843260517471551063e-01
3.781890945472736831e+01 6.974177180224698791e-01
3.835917958979489839e+01 7.103522226886981317e-01
3.889944972486243557e+01 7.231191186362596612e-01
3.943971985992996565e+01 7.357080881188352572e-01
3.997998999499750283e+01 7.481089513408701874e-01
4.052026013006503291e+01 7.603116749389344786e-01
4.106053026513257009e+01 7.723063803639890201e-01
4.160080040020010728e+01 7.840833521531981321e-01
4.214107053526763735e+01 7.956330460783647140e-01
4.268134067033517454e+01 8.069460971713793285e-01
4.322161080540270461e+01 8.180133276082731664e-01
4.376188094047023469e+01 8.288257544608851335e-01
4.430215107553777187e+01 8.393745972859832927e-01
4.484242121060530195e+01 8.496512855710320888e-01
4.538269134567283913e+01 8.596474660001807155e-01
4.592296148074036921e+01 8.693550095616223716e-01
4.646323161580789929e+01 8.787660184700826216e-01
4.700350175087544358e+01 8.878728329001268627e-01
4.754377188594297365e+01 8.966680375357736210e-01
4.808404202101051084e+01 9.051444679152589323e-01
4.862431215607804091e+01 9.132952165678220879e-01
4.916458229114557810e+01 9.211136389476024533e-01
4.970485242621310817e+01 9.285933591395807429e-01
5.024512256128064536e+01 9.357282753512730089e-01
5.078539269634817543e+01 9.425125651674610694e-01
5.132566283141571262e+01 9.489406905734417697e-01
5.186593296648324269e+01 9.550074027436621371e-01
5.240620310155077277e+01 9.607077465730230470e-01
5.294647323661831706e+01 9.660370649712191060e-01
5.348674337168584714e+01 9.709910028958301798e-01
5.402701350675338432e+01 9.755655111300397531e-01
5.456728364182091440e+01 9.797568497971467227e-01
5.510755377688844447e+01 9.835615916079547549e-01
5.564782391195598166e+01 9.869766248410369869e-01
5.618809404702351173e+01 9.899991560496118614e-01
5.672836418209104181e+01 9.926267124915031381e-01
5.726863431715857899e+01 9.948571442857099267e-01
5.780890445222611618e+01 9.966886262807027608e-01
5.834917458729364625e+01 9.981196596493303597e-01
5.888944472236119054e+01 9.991490731923176050e-01
5.942971485742872062e+01 9.997760243632833888e-01
5.996998499249625070e+01 1.000000000000000000e+00
6.051025512756378788e+01 9.998208167752128395e-01
6.105052526263132506e+01 9.992386213517439053e-01
6.159079539769884803e+01 9.982538902614641607e-01
6.213106553276638522e+01 9.968674294846330275e-01
6.267133566783392240e+01 9.950803737468392196e-01
6.321160580290144537e+01 9.928941855335429167e-01
6.375187593796898256e+01 9.903106538092945055e-01
6.429214607303651974e+01 9.873318924627787485e-01
6.483241620810404982e+01 9.839603384635866590e-01
6.537268634317157989e+01 9.801987497393286342e-01
6.591295647823912418e+01 9.760502027770094902e-01
6.645322661330665426e+01 9.715180899435693629e-01
6.699349674837418434e+01 9.666061165396951926e-01
6.753376688344172862e+01 9.613182975810234954e-01
6.807403701850925870e+01 9.556589543106545070e-01
6.861430715357678878e+01 9.496327104515926987e-01
6.915457728864433307e+01 9.432444882042058110e-01
6.969484742371186314e+01 9.364995039781278674e-01
7.023511755877939322e+01 9.294032638875889818e-01
7.077538769384692330e+01 9.219615589909813114e-01
7.131565782891446759e+01 9.141804602950264202e-01
7.185592796398198345e+01 9.060663135215880626e-01
7.239619809904952774e+01 8.976257336512284413e-01
7.293646823411705782e+01 8.888655992239252734e-01
7.347673836918460211e+01 8.797930464498265879e-01
7.401700850425211797e+01 8.704154630810816418e-01
7.455727863931966226e+01 8.607404820952768709e-01
7.509754877438720655e+01 8.507759751665823211e-01
7.563781890945473663e+01 8.405300459535938185e-01
7.617808904452226670e+01 8.300110231968204078e-01
7.671835917958979678e+01 8.192274536320839351e-01
7.725862931465732686e+01 8.081880947417650063e-01
7.779889944972487115e+01 7.969019073278350573e-01
7.833916958479240122e+01 7.853780479376196721e-01
7.887943971985993130e+01 7.736258611344565272e-01
7.941970985492746138e+01 7.616548716214760484e-01
7.995997998999500567e+01 7.494747762369111665e-01
8.050025012506252153e+01 7.370954358131042161e-01
8.104052026013006582e+01 7.245268669258445593e-01
8.158079039519761011e+01 7.117792335156277739e-01
8.212106053026514019e+01 6.988628384250957781e-01
8.266133066533267026e+01 6.857881148162335849e-01
8.320160080040021455e+01 6.725656175158873928e-01
8.374187093546774463e+01 6.592060142739404327e-01
8.428214107053527471e+01 6.457200769494200188e-01
8.482241120560280478e+01 6.321186726253184007e-01
8.536268134067034907e+01 6.184127546815062493e-01
8.590295147573786494e+01 6.046133537955755699e-01
8.644322161080540923e+01 5.907315689272336634e-01
8.698349174587295352e+01 5.767785582502119590e-01
8.752376188094046938e+01 5.627655300645912906e-01
8.806403201600801367e+01 5.487037336930675746e-01
8.860430215107554375e+01 5.346044503658600178e-01
8.914457228614307382e+01 5.204789841020937002e-01
8.968484242121060390e+01 5.063386525939237437e-01
9.022511255627814819e+01 4.921947781075017847e-01
9.076538269134567827e+01 4.780586784035264492e-01
9.130565282641320835e+01 4.639416576785521107e-01
9.184592296148073842e+01 4.498549975489908315e-01
9.238619309654828271e+01 4.358099480703652162e-01
9.292646323161579858e+01 4.218177188086538187e-01
9.346673336668334287e+01 4.078894699649050493e-01
9.400700350175088715e+01 3.940363035633020483e-01
9.454727363681840302e+01 3.802692547089465691e-01
9.508754377188594731e+01 3.665992829149691268e-01
9.562781390695347739e+01 3.530372635216834087e-01
9.616808404202102167e+01 3.395939791952505282e-01
9.670835417708853754e+01 3.262801115215214209e-01
9.724862431215608183e+01 3.131062327075892493e-01
9.778889444722361191e+01 3.000827973753866784e-01
9.832916458229115619e+01 2.872201344833606451e-01
9.886943471735867206e+01 2.745284393531167710e-01
9.940970485242621635e+01 2.620177658210083305e-01
9.994997498749376064e+01 2.496980185260288809e-01
1.004902451225612907e+02 2.375789453155989495e-01
1.010305152576288350e+02 2.256701298099822728e-01
1.015707853926963509e+02 2.139809840849879186e-01
1.021110555277638952e+02 2.025207415250515897e-01
1.026513256628314252e+02 1.912984498153622870e-01
1.031915957978989553e+02 1.803229640918343479e-01
1.037318659329664854e+02 1.696029402583253964e-01
1.042721360680340297e+02 1.591468284581746828e-01
1.048124062031015455e+02 1.489628667274793816e-01
1.053526763381690898e+02 1.390590748069996663e-01
1.058929464732366341e+02 1.294432481432436222e-01
1.064332166083041500e+02 1.201229520591478861e-01
1.069734867433716943e+02 1.111055161131547647e-01
1.075137568784392244e+02 1.023980286439437476e-01
1.080540270135067686e+02 9.400733150395124138e-02
1.085942971485742845e+02 8.594001498050314602e-02
1.091345672836418288e+02 7.820241292414420453e-02
1.096748374187093589e+02 7.080059806340549544e-02
1.102151075537768889e+02 6.374037751815157804e-02
1.107553776888444190e+02 5.702728852991650194e-02
1.112956478239119633e+02 5.066659438337789423e-02
1.118359179589794792e+02 4.466328053776949525e-02
1.123761880940470235e+02 3.902205097214900276e-02
1.129164582291145678e+02 3.374732473747110717e-02
1.134567283641820836e+02 2.884323272369074959e-02
1.139969984992496279e+02 2.431361463445494073e-02
1.145372686343171580e+02 2.016201619131685260e-02
1.150775387693847023e+02 1.639168653966330616e-02
1.156178089044522324e+02 1.300557588338119124e-02
1.161580790395197624e+02 1.000633333612096706e-02
1.166983491745872925e+02 7.396304993857265829e-03
1.172386193096548368e+02 5.177532226004938169e-03
1.177788894447223811e+02 3.351750193315689973e-03
1.183191595797899112e+02 1.920386589030260603e-03
1.188594297148574412e+02 8.845605970192963602e-04
1.193996998499249571e+02 2.450820861050743873e-04
1.199399699849925014e+02 2.451016280138096115e-06
1.204802401200600315e+02 1.568570775816908200e-04
1.210205102551275758e+02 7.081795553549274881e-04
1.215607803901951058e+02 1.655987413680099548e-03
1.221010505252626501e+02 2.999539611063663062e-03
1.226413206603301944e+02 4.737785637426571161e-03
1.231815907953976961e+02 6.869366275523121693e-03
1.237218609304652261e+02 9.392614590315449818e-03
1.242621310655327704e+02 1.230555713729509885e-02
1.248024012006003147e+02 1.560591539876025023e-02
1.253426713356678448e+02 1.929110743786499257e-02
1.258829414707353891e+02 2.335824978414933334e-02
1.264232116058028907e+02 2.780415952430761312e-02
1.269634817408704208e+02 3.262535662992113727e-02
1.275037518759379651e+02 3.781806648807914395e-02
1.280440220110054952e+02 4.337822266583056530e-02
1.285842921460730395e+02 4.930146987517409346e-02
1.291245622811405838e+02 5.558316716561220727e-02
1.296648324162080996e+02 6.221839131724350019e-02
1.302051025512756155e+02 6.920194046063561644e-02
1.307453726863431598e+02 7.652833788744456411e-02
1.312856428214107041e+02 8.419183608781470596e-02
1.318259129564782484e+02 9.218642097656661039e-02
1.323661830915457926e+02 1.005058163348071104e-01
1.329064532266133085e+02 1.091434884458106630e-01
1.334467233616808528e+02 1.180926509279139613e-01
1.339869934967483687e+02 1.273462697695156298e-01
1.345272636318159130e+02 1.368970685497304385e-01
1.350675337668834572e+02 1.467375338584067102e-01
1.356078039019509731e+02 1.568599208923983634e-01
1.361480740370185174e+02 1.672562592378828983e-01
1.366883441720860333e+02 1.779183588430342522e-01
1.372286143071535776e+02 1.888378161548081025e-01
1.377688844422211218e+02 2.000060204374649597e-01
1.383091545772886661e+02 2.114141602563805733e-01
1.388494247123561820e+02 2.230532301275355844e-01
1.393896948474237263e+02 2.349140373362093026e-01
1.399299649824912706e+02 2.469872088994187476e-01
1.404702351175587864e+02 2.592631986932533716e-01
1.410105052526263023e+02 2.717322947259134258e-01
1.415507753876938466e+02 2.843846265525352135e-01
1.420910455227613909e+02 2.972101728263197296e-01
1.426313156578289352e+02 3.101987689930145176e-01
1.431715857928964795e+02 3.233401151103409421e-01
1.437118559279639669e+02 3.366237837833570556e-01
1.442521260630315112e+02 3.500392282318156023e-01
1.447923961980990555e+02 3.635757904628832415e-01
1.453326663331665998e+02 3.772227095472616698e-01
1.458729364682341156e+02 3.909691300104624623e-01
1.464132066033016599e+02 4.048041103043747424e-01
1.469534767383692042e+02 4.187166313755774083e-01
1.474937468734367201e+02 4.326956053170784577e-01
1.480340170085042359e+02 4.467298840979974095e-01
1.485742871435717802e+02 4.608082683574833416e-01
1.491145572786393245e+02 4.749195162663922831e-01
1.496548274137068688e+02 4.890523524492833007e-01
1.501950975487744131e+02 5.031954769483235612e-01
1.507353676838419290e+02 5.173375742357614326e-01
1.512756378189094733e+02 5.314673222628257809e-01
1.518159079539769891e+02 5.455734015352583510e-01
1.523561780890445334e+02 5.596445042072560883e-01
1.528964482241120493e+02 5.736693431973466373e-01
1.534367183591795936e+02 5.876366613038722653e-01
1.539769884942471094e+02 6.015352403228237943e-01
1.545172586293146537e+02 6.153539101562744973e-01
1.550575287643821980e+02 6.290815579016221237e-01
1.555977988994497423e+02 6.427071369251626809e-01
1.561380690345172866e+02 6.562196758925815665e-01
1.566783391695848024e+02 6.696082877688921409e-01
1.572186093046523467e+02 6.828621787635411611e-01
1.577588794397198626e+02 6.959706572296870952e-01
1.582991495747874069e+02 7.089231424867104003e-01
1.588394197098549228e+02 7.217091735835801103e-01
1.593796898449224670e+02 7.343184179772270781e-01
1.599199599799900113e+02 7.467406801208318345e-01
1.604602301150575556e+02 7.589659099651597796e-01
1.610005002501250431e+02 7.709842113494440596e-01
1.615407703851925874e+02 7.827858502869071700e-01
1.620810405202601316e+02 7.943612631229878263e-01
1.626213106553276759e+02 8.057010645795904535e-01
1.631615807903952202e+02 8.167960556551970841e-01
1.637018509254627361e+02 8.276372313875012265e-01
1.642421210605302804e+02 8.382157884652464697e-01
1.647823911955977962e+02 8.485231326873108326e-01
1.653226613306653405e+02 8.585508862521957774e-01
1.658629314657328564e+02 8.682908948779189950e-01
1.664032016008004291e+02 8.777352347538784905e-01
1.669434717358679450e+02 8.868762192870853767e-01
1.674837418709354893e+02 8.957064056752778169e-01
1.680240120060029767e+02 9.042186012779276361e-01
1.685642821410705494e+02 9.124058697745682789e-01
1.691045522761380653e+02 9.202615371171005698e-01
1.696448224112056096e+02 9.277791972682427613e-01
1.701850925462731539e+02 9.349527177143756029e-01
1.707253626813406981e+02 9.417762447453396080e-01
1.712656328164081856e+02 9.482442085051016045e-01
1.718059029514757299e+02 9.543513278081994233e-01
1.723461730865432742e+02 9.600926146965038654e-01
1.728864432216108185e+02 9.654633787648934096e-01
1.734267133566783343e+02 9.704592312170622348e-01
1.739669834917459070e+02 9.750760886784899384e-01
1.745072536268134229e+02 9.793101767344539743e-01
1.750475237618809388e+02 9.831580332134526312e-01
1.755877938969484546e+02 9.866165111905794705e-01
1.761280640320160273e+02 9.896827817300410945e-01
1.766683341670835432e+02 9.923543363472348000e-01
1.772086043021510875e+02 9.946289891864692478e-01
1.777488744372186034e+02 9.965048789339115975e-01
1.782891445722861476e+02 9.979804704340358157e-01
1.788294147073536919e+02 9.990545560279815440e-01
1.793696848424212078e+02 9.997262566114706317e-01
1.799099549774887805e+02 9.999950223958357087e-01
1.804502251125562964e+02 9.998606333921310485e-01
1.809904952476238122e+02 9.993231996003130169e-01
1.815307653826913565e+02 9.983831609140622065e-01
1.820710355177589008e+02 9.970412867381158728e-01
1.826113056528264167e+02 9.952986753153681976e-01
1.831515757878939610e+02 9.931567527692207742e-01
1.836918459229614768e+02 9.906172718619694617e-01
1.842321160580290496e+02 9.876823104660911179e-01
1.847723861930965654e+02 9.843542697515652584e-01
1.853126563281640813e+02 9.806358720978475274e-01
1.858529264632315972e+02 9.765301587238361947e-01
1.863931965982991699e+02 9.720404870393564156e-01
1.869334667333666857e+02 9.671705277299129655e-01
1.874737368684342300e+02 9.619242615625696047e-01
1.880140070035017743e+02 9.563059759372389834e-01
1.885542771385692902e+02 9.503202611637984187e-01
1.890945472736368060e+02 9.439720064787412435e-01
1.896348174087043503e+02 9.372663958240811111e-01
1.901750875437718946e+02 9.302089033540406060e-01
1.907153576788394389e+02 9.228052887086921618e-01
1.912556278139069548e+02 9.150615920443689877e-01
1.917958979489745275e+02 9.069841288243688515e-01
1.923361680840420433e+02 8.985794843860119840e-01
1.928764382191095592e+02 8.898545082754334423e-01
1.934167083541770751e+02 8.808163083720464970e-01
1.939569784892446478e+02 8.714722447834830632e-01
1.944972486243121637e+02 8.618299235603626984e-01
1.950375187593797079e+02 8.518971901838905403e-01
1.955777888944472238e+02 8.416821228748493366e-01
1.961180590295147681e+02 8.311930257087126739e-01
1.966583291645823124e+02 8.204384215572451122e-01
1.971985992996498283e+02 8.094270448475812119e-01
1.977388694347173441e+02 7.981678341634594887e-01
1.982791395697849168e+02 7.866699246831261316e-01
1.988194097048524327e+02 7.749426404625283649e-01
1.993596798399199486e+02 7.629954865845520739e-01
1.998999499749875213e+02 7.508381411586420029e-01
2.004402201100550371e+02 7.384804472033076328e-01
2.009804902451225814e+02 7.259324043997701370e-01
2.015207603801900973e+02 7.132041607331969235e-01
2.020610305152576700e+02 7.003060040317081736e-01
2.026013006503251574e+02 6.872483534039409703e-01
2.031415707853927017e+02 6.740417505896593164e-01
2.036818409204602176e+02 6.606968512261549575e-01
2.042221110555277903e+02 6.472244160398378243e-01
2.047623811905953062e+02 6.336353019759410898e-01
2.053026513256628505e+02 6.199404532667338596e-01
2.058429214607303379e+02 6.061508924480315530e-01
2.063831915957979106e+02 5.922777113408481675e-01
2.069234617308654265e+02 5.783320619840883747e-01
2.074637318659329708e+02 5.643251475601893663e-01
2.080040020010005151e+02 5.502682132827706463e-01
2.085442721360680594e+02 5.361725372881996909e-01
2.090845422711355752e+02 5.220494215122750692e-01
2.096248124062030911e+02 5.079101825782670332e-01
2.101650825412706354e+02 4.937661426939676246e-01
2.107053526763381797e+02 4.796286205667569802e-01
2.112456228114056955e+02 4.655089223476546745e-01
2.117858929464732682e+02 4.514183326067041646e-01
2.123261630815407841e+02 4.373681053459591017e-01
2.128664332166083000e+02 4.233694550704369952e-01
2.134067033516758443e+02 4.094335479033328062e-01
2.139469734867433885e+02 3.955714927658587343e-01
2.144872436218109328e+02 3.817943326271945326e-01
2.150275137568784487e+02 3.681130358265058966e-01
