Theta (degrees)	Normalized Energy
0.000000000000000000e+00 0.000000000000000000e+00
5.402701350675338521e-01 6.560890932642882188e-04
1.080540270135067704e+00 2.614276972694715151e-03
1.620810405202601334e+00 5.845006965514473740e-03
2.161080540270135408e+00 1.030118456699660907e-02
2.701350675337669038e+00 1.592108758651348405e-02
3.241620810405202668e+00 2.263185098767321254e-02
3.781890945472736743e+00 3.035311198213229075e-02
4.322161080540270817e+00 3.900046013163228215e-02
4.862431215607804447e+00 4.848844241585913151e-02
5.402701350675338077e+00 5.873298953868427014e-02
5.942971485742871707e+00 6.965323081587208864e-02
6.483241620810405337e+00 8.117273748661933686e-02
7.023511755877938967e+00 9.322027631819579385e-02
7.563781890945473485e+00 1.057301720457983762e-01
8.104052026013006227e+00 1.186423762756154687e-01
8.644322161080541633e+00 1.319023294391213352e-01
9.184592296148075263e+00 1.454606869785907697e-01
9.724862431215608893e+00 1.592729649450605744e-01
1.026513256628314252e+01 1.732991456992462598e-01
1.080540270135067615e+01 1.875032723277824942e-01
1.134567283641820978e+01 2.018530508924085420e-01
1.188594297148574341e+01 2.163194724966338578e-01
1.242621310655327704e+01 2.308764619994816414e-01
1.296648324162081067e+01 2.455005566136990169e-01
1.350675337668834608e+01 2.601706152166771702e-01
1.404702351175587793e+01 2.748675576587183977e-01
1.458729364682341156e+01 2.895741324251465132e-01
1.512756378189094697e+01 3.042747105048850820e-01
1.566783391695848060e+01 3.189551030998700742e-01
1.620810405202601245e+01 3.336024007754916365e-01
1.674837418709354608e+01 3.482048317325432407e-01
1.728864432216108327e+01 3.627516370273320967e-01
1.782891445722861690e+01 3.772329607461351597e-01
1.836918459229615053e+01 3.916397533324292857e-01
1.890945472736368416e+01 4.059636864562682357e-01
1.944972486243121779e+01 4.201970779976021420e-01
1.998999499749875142e+01 4.343328258843552336e-01
2.053026513256628505e+01 4.483643496797961037e-01
2.107053526763381868e+01 4.622855389518796265e-01
2.161080540270135231e+01 4.760907075797550791e-01
2.215107553776888594e+01 4.897745532607175045e-01
2.269134567283641957e+01 5.033321215760024891e-01
2.323161580790394964e+01 5.167587740563309717e-01
2.377188594297148683e+01 5.300501597606325221e-01
2.431215607803902046e+01 5.432021899439473112e-01
2.485242621310655409e+01 5.562110154451247457e-01
2.539269634817408772e+01 5.690730064721140069e-01
2.593296648324162135e+01 5.817847345037003848e-01
2.647323661830915853e+01 5.943429560620677732e-01
2.701350675337669216e+01 6.067445981413440714e-01
2.755377688844422224e+01 6.189867451040819146e-01
2.809404702351175587e+01 6.310666268808167167e-01
2.863431715857928950e+01 6.429816083280247563e-01
2.917458729364682313e+01 6.547291796172478584e-01
2.971485742871436031e+01 6.663069475436301792e-01
3.025512756378189394e+01 6.777126276551314055e-01
3.079539769884942402e+01 6.889440371154934573e-01
3.133566783391696120e+01 6.999990882241514667e-01
3.187593796898449128e+01 7.108757825249580886e-01
3.241620810405202491e+01 7.215722054435905752e-01
3.295647823911956209e+01 7.320865214002153509e-01
3.349674837418709217e+01 7.424169693497976175e-01
3.403701850925462935e+01 7.525618587080362687e-01
3.457728864432216653e+01 7.625195656250968179e-01
3.511755877938969661e+01 7.722885295738740608e-01
3.565782891445723379e+01 7.818672502225464394e-01
3.619809904952476387e+01 7.912542845649426226e-01
3.673836918459230105e+01 8.004482442844792489e-01
3.727863931965983113e+01 8.094477933305084250e-01
3.781890945472736831e+01 8.182516456874849853e-01
3.835917958979489839e+01 8.268585633199246887e-01
3.889944972486243557e+01 8.352673542773871862e-01
3.943971985992996565e+01 8.434768709456972324e-01
3.997998999499750283e+01 8.514860084314074262e-01
4.052026013006503291e+01 8.592937030686447208e-01
4.106053026513257009e+01 8.668989310375257995e-01
4.160080040020010728e+01 8.743007070851765983e-01
4.214107053526763735e+01 8.814980833408966321e-01
4.268134067033517454e+01 8.884901482176745802e-01
4.322161080540270461e+01 8.952760253933719214e-01
4.376188094047023469e+01 9.018548728652598934e-01
4.430215107553777187e+01 9.082258820719932846e-01
4.484242121060530195e+01 9.143882770783325897e-01
4.538269134567283913e+01 9.203413138173551777e-01
4.592296148074036921e+01 9.260842793863507394e-01
4.646323161580789929e+01 9.316164913922682089e-01
4.700350175087544358e+01 9.369372973432270602e-01
4.754377188594297365e+01 9.420460740828776602e-01
4.808404202101051084e+01 9.469422272646798033e-01
4.862431215607804091e+01 9.516251908634533185e-01
4.916458229114557810e+01 9.560944267216303638e-01
4.970485242621310817e+01 9.603494241281304022e-01
5.024512256128064536e+01 9.643896994277906254e-01
5.078539269634817543e+01 9.682147956594658877e-01
5.132566283141571262e+01 9.718242822210787502e-01
5.186593296648324269e+01 9.752177545602328523e-01
5.240620310155077277e+01 9.783948338888373009e-01
5.294647323661831706e+01 9.813551669206108663e-01
5.348674337168584714e+01 9.840984256301222866e-01
5.402701350675338432e+01 9.866243070326389253e-01
5.456728364182091440e+01 9.889325329835517708e-01
5.510755377688844447e+01 9.910228499966131643e-01
5.564782391195598166e+01 9.928950290804356982e-01
5.618809404702351173e+01 9.945488655921549404e-01
5.672836418209104181e+01 9.959841791082467699e-01
5.726863431715857899e+01 9.972008133113285933e-01
5.780890445222611618e+01 9.981986358930476921e-01
5.834917458729364625e+01 9.989775384723251772e-01
5.888944472236119054e+01 9.995374365288216545e-01
5.942971485742872062e+01 9.998782693511591990e-01
5.996998499249625070e+01 1.000000000000000000e+00
6.051025512756378788e+01 9.999026152855430283e-01
6.105052526263132506e+01 9.995861257594940152e-01
6.159079539769884803e+01 9.990505657215460467e-01
6.213106553276638522e+01 9.982959932401297420e-01
6.267133566783392240e+01 9.973224901879027549e-01
6.321160580290144537e+01 9.961301622917266840e-01
6.375187593796898256e+01 9.947191391976196728e-01
6.429214607303651974e+01 9.930895745507537509e-01
6.483241620810404982e+01 9.912416460909349025e-01
6.537268634317157989e+01 9.891755557638804985e-01
6.591295647823912418e+01 9.868915298486969911e-01
6.645322661330665426e+01 9.843898191021902555e-01
6.699349674837418434e+01 9.816706989205571388e-01
6.753376688344172862e+01 9.787344695189812427e-01
6.807403701850925870e+01 9.755814561300260035e-01
6.861430715357678878e+01 9.722120092217362286e-01
6.915457728864433307e+01 9.686265047361117819e-01
6.969484742371186314e+01 9.648253443491613401e-01
7.023511755877939322e+01 9.608089557537579095e-01
7.077538769384692330e+01 9.565777929661702927e-01
7.131565782891446759e+01 9.521323366582338243e-01
7.185592796398198345e+01 9.474730945160190210e-01
7.239619809904952774e+01 9.426006016272914234e-01
7.293646823411705782e+01 9.375154208990361671e-01
7.347673836918460211e+01 9.322181435075133082e-01
7.401700850425211797e+01 9.267093893827155204e-01
7.455727863931966226e+01 9.209898077298431796e-01
7.509754877438720655e+01 9.150600775903624529e-01
7.563781890945473663e+01 9.089209084455711629e-01
7.617808904452226670e+01 9.025730408658447779e-01
7.671835917958979678e+01 8.960172472091413320e-01
7.725862931465732686e+01 8.892543323724595439e-01
7.779889944972487115e+01 8.822851346006908013e-01
7.833916958479240122e+01 8.751105263572794835e-01
7.887943971985993130e+01 8.677314152619970411e-01
7.941970985492746138e+01 8.601487451013015706e-01
7.995997998999500567e+01 8.523634969176223652e-01
8.050025012506252153e+01 8.443766901842384431e-01
8.104052026013006582e+01 8.361893840734470063e-01
8.158079039519761011e+01 8.278026788261901858e-01
8.212106053026514019e+01 8.192177172325021406e-01
8.266133066533267026e+01 8.104356862327326549e-01
8.320160080040021455e+01 8.014578186510157298e-01
8.374187093546774463e+01 7.922853950733440564e-01
8.428214107053527471e+01 7.829197458841133939e-01
8.482241120560280478e+01 7.733622534765807188e-01
8.536268134067034907e+01 7.636143546541684923e-01
8.590295147573786494e+01 7.536775432419489107e-01
8.644322161080540923e+01 7.435533729291680105e-01
8.698349174587295352e+01 7.332434603667444817e-01
8.752376188094046938e+01 7.227494885460727936e-01
8.806403201600801367e+01 7.120732104886809966e-01
8.860430215107554375e+01 7.012164532799508576e-01
8.914457228614307382e+01 6.901811224838731995e-01
8.968484242121060390e+01 6.789692069807227170e-01
9.022511255627814819e+01 6.675827842742599882e-01
9.076538269134567827e+01 6.560240263214066614e-01
9.130565282641320835e+01 6.442952059437820900e-01
9.184592296148073842e+01 6.323987038880374278e-01
9.238619309654828271e+01 6.203370166110605544e-01
9.292646323161579858e+01 6.081127648756065041e-01
9.346673336668334287e+01 5.957287032537295079e-01
9.400700350175088715e+01 5.831877306482785572e-01
9.454727363681840302e+01 5.704929019578626193e-01
9.508754377188594731e+01 5.576474410277375560e-01
9.562781390695347739e+01 5.446547550494645895e-01
9.616808404202102167e+01 5.315184505941128457e-01
9.670835417708853754e+01 5.182423514912498641e-01
9.724862431215608183e+01 5.048305187952045747e-01
9.778889444722361191e+01 4.912872731159665940e-01
9.832916458229115619e+01 4.776172196316378904e-01
9.886943471735867206e+01 4.638252761467068219e-01
9.940970485242621635e+01 4.499167046132564463e-01
9.994997498749376064e+01 4.358971465946527291e-01
1.004902451225612907e+02 4.217726632218693483e-01
1.010305152576288350e+02 4.075497802747125031e-01
1.015707853926963509e+02 3.932355391131154287e-01
1.021110555277638952e+02 3.788375542908596905e-01
1.026513256628314252e+02 3.643640788044938406e-01
1.031915957978989553e+02 3.498240780669493177e-01
1.037318659329664854e+02 3.352273138470642788e-01
1.042721360680340297e+02 3.205844395838294836e-01
1.048124062031015455e+02 3.059071086649897686e-01
1.053526763381690898e+02 2.912080974504705488e-01
1.058929464732366341e+02 2.765014450129456569e-01
1.064332166083041500e+02 2.618026117505640737e-01
1.069734867433716943e+02 2.471286591773664276e-01
1.075137568784392244e+02 2.324984532869694143e-01
1.080540270135067686e+02 2.179328938665633097e-01
1.085942971485742845e+02 2.034551719447590945e-01
1.091345672836418288e+02 1.890910570908392874e-01
1.096748374187093589e+02 1.748692154102012841e-01
1.102151075537768889e+02 1.608215576169943206e-01
1.107553776888444190e+02 1.469836142662175327e-01
1.112956478239119633e+02 1.333949317846315485e-01
1.118359179589794792e+02 1.200994779785448663e-01
1.123761880940470235e+02 1.071460388041903244e-01
1.129164582291145678e+02 9.458857896877309601e-02
1.134567283641820836e+02 8.248652714109083739e-02
1.139969984992496279e+02 7.090493229996164271e-02
1.145372686343171580e+02 5.991442184014064698e-02
1.150775387693847023e+02 4.959087642988663919e-02
1.156178089044522324e+02 4.001472484110839972e-02
1.161580790395197624e+02 3.126975958991004556e-02
1.166983491745872925e+02 2.344138854666216742e-02
1.172386193096548368e+02 1.661427654915776167e-02
1.177788894447223811e+02 1.086940009011688052e-02
1.183191595797899112e+02 6.280636464485967081e-03
1.188594297148574412e+02 2.911124458449311676e-03
1.193996998499249571e+02 8.097417436838948461e-04
1.199399699849925014e+02 8.110201520848369020e-06
1.204802401200600315e+02 5.185317014905560995e-04
1.210205102551275758e+02 2.333157837209559691e-03
1.215607803901951058e+02 5.424521390587092907e-03
1.221010505252626501e+02 9.747347366874194174e-03
1.226413206603301944e+02 1.524137362572778112e-02
1.231815907953976961e+02 2.183479275771823408e-02
1.237218609304652261e+02 2.944789852806114702e-02
1.242621310655327704e+02 3.799657213118212001e-02
1.248024012006003147e+02 4.739534538026071026e-02
1.253426713356678448e+02 5.755989456043467817e-02
1.258829414707353891e+02 6.840892233799472644e-02
1.264232116058028907e+02 7.986546106084202457e-02
1.269634817408704208e+02 9.185767603234760992e-02
1.275037518759379651e+02 1.043192664638272066e-01
1.280440220110054952e+02 1.171895624598310315e-01
1.285842921460730395e+02 1.304134061542391032e-01
1.291245622811405838e+02 1.439408899714789136e-01
1.296648324162080996e+02 1.577270089233714090e-01
1.302051025512756155e+02 1.717312691317529616e-01
1.307453726863431598e+02 1.859172824024944437e-01
1.312856428214107041e+02 2.002523669006592011e-01
1.318259129564782484e+02 2.147071665986695910e-01
1.323661830915457926e+02 2.292552968151727044e-01
1.329064532266133085e+02 2.438730194163485354e-01
1.334467233616808528e+02 2.585389487274835640e-01
1.339869934967483687e+02 2.732337875766712720e-01
1.345272636318159130e+02 2.879400919061415043e-01
1.350675337668834572e+02 3.026420618438784849e-01
1.356078039019509731e+02 3.173253568829955129e-01
1.361480740370185174e+02 3.319769327666525771e-01
1.366883441720860333e+02 3.465848977457676727e-01
1.372286143071535776e+02 3.611383860178685179e-01
1.377688844422211218e+02 3.756274463325028901e-01
1.383091545772886661e+02 3.900429439399964449e-01
1.388494247123561820e+02 4.043764742521685496e-01
1.393896948474237263e+02 4.186202867669974181e-01
1.399299649824912706e+02 4.327672179801065888e-01
1.404702351175587864e+02 4.468106321612817511e-01
1.410105052526263023e+02 4.607443690140389791e-01
1.415507753876938466e+02 4.745626973607713905e-01
1.420910455227613909e+02 4.882602741050889317e-01
1.426313156578289352e+02 5.018321078201797292e-01
1.431715857928964795e+02 5.152735263951774280e-01
1.437118559279639669e+02 5.285801482455093625e-01
1.442521260630315112e+02 5.417478566567714982e-01
1.447923961980990555e+02 5.547727768869694653e-01
1.453326663331665998e+02 5.676512556998588588e-01
1.458729364682341156e+02 5.803798430444541134e-01
1.464132066033016599e+02 5.929552756306909478e-01
1.469534767383692042e+02 6.053744621838214046e-01
1.474937468734367201e+02 6.176344701862397368e-01
1.480340170085042359e+02 6.297325139398611826e-01
1.485742871435717802e+02 6.416659438018069705e-01
1.491145572786393245e+02 6.534322364648708081e-01
1.496548274137068688e+02 6.650289861689206994e-01
1.501950975487744131e+02 6.764538967434257088e-01
1.507353676838419290e+02 6.877047743929031176e-01
1.512756378189094733e+02 6.987795211472872525e-01
1.518159079539769891e+02 7.096761289084041469e-01
1.523561780890445334e+02 7.203926740313398858e-01
1.528964482241120493e+02 7.309273123867403577e-01
1.534367183591795936e+02 7.412782748558613966e-01
1.539769884942471094e+02 7.514438632154732955e-01
1.545172586293146537e+02 7.614224463748002769e-01
1.550575287643821980e+02 7.712124569302414301e-01
1.555977988994497423e+02 7.808123880078263745e-01
1.561380690345172866e+02 7.902207903661406796e-01
1.566783391695848024e+02 7.994362697353634140e-01
1.572186093046523467e+02 8.084574843710512493e-01
1.577588794397198626e+02 8.172831428027655942e-01
1.582991495747874069e+02 8.259120017602850083e-01
1.588394197098549228e+02 8.343428642615576818e-01
1.593796898449224670e+02 8.425745778482215398e-01
1.599199599799900113e+02 8.506060329559770317e-01
1.604602301150575556e+02 8.584361614083185765e-01
1.610005002501250431e+02 8.660639350229664135e-01
1.615407703851925874e+02 8.734883643220087146e-01
1.620810405202601316e+02 8.807084973369005976e-01
1.626213106553276759e+02 8.877234185008474610e-01
1.631615807903952202e+02 8.945322476213880547e-01
1.637018509254627361e+02 9.011341389270175473e-01
1.642421210605302804e+02 9.075282801821115131e-01
1.647823911955977962e+02 9.137138918646798835e-01
1.653226613306653405e+02 9.196902264026389773e-01
1.658629314657328564e+02 9.254565674637664774e-01
1.664032016008004291e+02 9.310122292959295276e-01
1.669434717358679450e+02 9.363565561135600568e-01
1.674837418709354893e+02 9.414889215275006329e-01
1.680240120060029767e+02 9.464087280148769654e-01
1.685642821410705494e+02 9.511154064267280939e-01
1.691045522761380653e+02 9.556084155304388483e-01
1.696448224112056096e+02 9.598872415851765760e-01
1.701850925462731539e+02 9.639513979479392702e-01
1.707253626813406981e+02 9.678004247085926215e-01
1.712656328164081856e+02 9.714338883520018397e-01
1.718059029514757299e+02 9.748513814458864557e-01
1.723461730865432742e+02 9.780525223528336864e-01
1.728864432216108185e+02 9.810369549653056298e-01
1.734267133566783343e+02 9.838043484623482104e-01
1.739669834917459070e+02 9.863543970872009625e-01
1.745072536268134229e+02 9.886868199445426608e-01
1.750475237618809388e+02 9.908013608167319797e-01
1.755877938969484546e+02 9.926977879982051833e-01
1.761280640320160273e+02 9.943758941474560853e-01
1.766683341670835432e+02 9.958354961557749352e-01
1.772086043021510875e+02 9.970764350323997327e-01
1.777488744372186034e+02 9.980985758056458712e-01
1.782891445722861476e+02 9.989018074393979374e-01
1.788294147073536919e+02 9.994860427649426837e-01
1.793696848424212078e+02 9.998512184275547554e-01
1.799099549774887805e+02 9.999972948479419754e-01
1.804502251125562964e+02 9.999242561981167565e-01
1.809904952476238122e+02 9.996321103918121009e-01
1.815307653826913565e+02 9.991208890892538941e-01
1.820710355177589008e+02 9.983906477164394833e-01
1.826113056528264167e+02 9.974414654989079976e-01
1.831515757878939610e+02 9.962734455101220910e-01
1.836918459229614768e+02 9.948867147347381090e-01
1.842321160580290496e+02 9.932814241469364314e-01
1.847723861930965654e+02 9.914577488041529385e-01
1.853126563281640813e+02 9.894158879565223552e-01
1.858529264632315972e+02 9.871560651726505320e-01
1.863931965982991699e+02 9.846785284819649098e-01
1.869334667333666857e+02 9.819835505343832427e-01
1.874737368684342300e+02 9.790714287779629377e-01
1.880140070035017743e+02 9.759424856551911498e-01
1.885542771385692902e+02 9.725970688187614011e-01
1.890945472736368060e+02 9.690355513677972876e-01
1.896348174087043503e+02 9.652583321054338805e-01
1.901750875437718946e+02 9.612658358190724339e-01
1.907153576788394389e+02 9.570585135842692992e-01
1.912556278139069548e+02 9.526368430938881859e-01
1.917958979489745275e+02 9.480013290138434856e-01
1.923361680840420433e+02 9.431525033672030212e-01
1.928764382191095592e+02 9.380909259483222185e-01
1.934167083541770751e+02 9.328171847691654195e-01
1.939569784892446478e+02 9.273318965397843172e-01
1.944972486243121637e+02 9.216357071856623451e-01
1.950375187593797079e+02 9.157292924040922877e-01
1.955777888944472238e+02 9.096133582629639669e-01
1.961180590295147681e+02 9.032886418447880761e-01
1.966583291645823124e+02 8.967559119394202805e-01
1.971985992996498283e+02 8.900159697895935196e-01
1.977388694347173441e+02 8.830696498930259430e-01
1.982791395697849168e+02 8.759178208660910459e-01
1.988194097048524327e+02 8.685613863737482454e-01
1.993596798399199486e+02 8.610012861316879151e-01
1.998999499749875213e+02 8.532384969863641144e-01
2.004402201100550371e+02 8.452740340801179197e-01
2.009804902451225814e+02 8.371089521085461893e-01
2.015207603801900973e+02 8.287443466784122359e-01
2.020610305152576700e+02 8.201813557752988260e-01
2.026013006503251574e+02 8.114211613508793830e-01
2.031415707853927017e+02 8.024649910411073561e-01
2.036818409204602176e+02 7.933141200275618532e-01
2.042221110555277903e+02 7.839698730556416972e-01
2.047623811905953062e+02 7.744336266249045586e-01
2.053026513256628505e+02 7.647068113682639057e-01
2.058429214607303379e+02 7.547909146391039714e-01
2.063831915957979106e+02 7.446874833269845340e-01
2.069234617308654265e+02 7.343981269256696365e-01
2.074637318659329708e+02 7.239245208790833219e-01
2.080040020010005151e+02 7.132684102350650424e-01
2.085442721360680594e+02 7.024316136389749943e-01
2.090845422711355752e+02 6.914160277041864200e-01
2.096248124062030911e+02 6.802236318005195903e-01
2.101650825412706354e+02 6.688564933068588125e-01
2.107053526763381797e+02 6.573167733799001322e-01
2.112456228114056955e+02 6.456067332979021911e-01
2.117858929464732682e+02 6.337287414453615098e-01
2.123261630815407841e+02 6.216852810136043184e-01
2.128664332166083000e+02 6.094789585018162148e-01
2.134067033516758443e+02 5.971125131144306986e-01
2.139469734867433885e+02 5.845888271635681921e-01
2.144872436218109328e+02 5.719109376002491363e-01
2.150275137568784487e+02 5.590820488148400269e-01
