Theta (degrees)	Normalized Energy
0.000000000000000000e+00 0.000000000000000000e+00
3.599999999999999867e-01 4.049183340041560775e-06
7.199999999999999734e-01 1.619652773960848199e-05
1.080000000000000071e+00 3.644141630697797773e-05
1.439999999999999947e+00 6.478282078518470943e-05
1.800000000000000266e+00 1.012193013937697449e-04
2.160000000000000142e+00 1.457490066079567524e-04
2.520000000000000018e+00 1.983696728756190446e-04
2.879999999999999893e+00 2.590786242683269076e-04
3.239999999999999769e+00 3.278727720645836460e-04
3.600000000000000533e+00 4.047486142712160544e-04
3.960000000000000409e+00 4.897022350752802677e-04
4.320000000000000284e+00 5.827293042244452610e-04
4.679999999999999716e+00 6.838250763424750861e-04
5.040000000000000036e+00 7.929843901719524140e-04
5.400000000000000355e+00 9.102016677360207954e-04
5.759999999999999787e+00 1.035470913436972468e-03
6.120000000000000107e+00 1.168785713067015467e-03
6.479999999999999538e+00 1.310139232742934395e-03
6.840000000000000746e+00 1.459524217760281399e-03
7.200000000000001066e+00 1.616932991357634183e-03
7.560000000000000497e+00 1.782357453396820344e-03
7.920000000000000817e+00 1.955789078949278850e-03
8.280000000000001137e+00 2.137218916791040410e-03
8.640000000000000568e+00 2.326637587791475538e-03
9.000000000000000000e+00 2.524035283212404911e-03
9.359999999999999432e+00 2.729401762886941342e-03
9.720000000000002416e+00 2.942726353297045808e-03
1.008000000000000007e+01 3.163997945532347287e-03
1.044000000000000128e+01 3.393204993126792534e-03
1.080000000000000071e+01 3.630335509771540244e-03
1.116000000000000014e+01 3.875377066893098861e-03
1.151999999999999957e+01 4.128316791095628172e-03
1.188000000000000078e+01 4.389141361459828264e-03
1.224000000000000021e+01 4.657837006683292549e-03
1.260000000000000142e+01 4.934389502074387236e-03
1.295999999999999908e+01 5.218784166364244179e-03
1.331999999999999851e+01 5.511005858354746899e-03
1.368000000000000149e+01 5.811038973378797844e-03
1.404000000000000270e+01 6.118867439566545545e-03
1.440000000000000213e+01 6.434474713908748880e-03
1.475999999999999979e+01 6.757843778105289759e-03
1.512000000000000099e+01 7.088957134186968725e-03
1.548000000000000043e+01 7.427796799904903130e-03
1.584000000000000163e+01 7.774344303858727115e-03
1.620000000000000284e+01 8.128580680373986150e-03
1.656000000000000227e+01 8.490486464089222127e-03
1.691999999999999815e+01 8.860041684253333605e-03
1.728000000000000114e+01 9.237225858711750962e-03
1.764000000000000057e+01 9.622017987564162461e-03
1.800000000000000000e+01 1.001439654647497644e-02
1.835999999999999943e+01 1.041433947961204788e-02
1.871999999999999886e+01 1.082182419220189921e-02
1.908000000000000185e+01 1.123682754267333293e-02
1.944000000000000483e+01 1.165932583435787262e-02
1.980000000000000426e+01 1.208929480673823394e-02
2.016000000000000014e+01 1.252670962619707382e-02
2.052000000000000313e+01 1.297154487625417144e-02
2.088000000000000256e+01 1.342377454724642816e-02
2.124000000000000554e+01 1.388337202542738909e-02
2.160000000000000142e+01 1.435031008143950598e-02
2.196000000000000085e+01 1.482456085813114478e-02
2.232000000000000028e+01 1.530609585766962849e-02
2.267999999999999972e+01 1.579488592790444582e-02
2.303999999999999915e+01 1.629090124793904082e-02
2.340000000000000213e+01 1.679411131285504788e-02
2.376000000000000156e+01 1.730448491753459189e-02
2.412000000000000099e+01 1.782199013951977704e-02
2.448000000000000043e+01 1.834659432085273406e-02
2.484000000000000341e+01 1.887826404881638026e-02
2.520000000000000284e+01 1.941696513551032996e-02
2.556000000000000227e+01 1.996266259618217215e-02
2.591999999999999815e+01 2.051532062622284103e-02
2.627999999999999758e+01 2.107490257674175804e-02
2.663999999999999702e+01 2.164137092861367559e-02
2.700000000000000355e+01 2.221468726489821827e-02
2.736000000000000298e+01 2.279481224150839772e-02
2.772000000000000242e+01 2.338170555600908168e-02
2.808000000000000540e+01 2.397532591440648328e-02
2.844000000000000483e+01 2.457563099578199961e-02
2.880000000000000426e+01 2.518257741461353907e-02
2.916000000000000014e+01 2.579612068061069505e-02
2.951999999999999957e+01 2.641621515587373736e-02
2.987999999999999901e+01 2.704281400918512324e-02
3.024000000000000199e+01 2.767586916719788279e-02
3.059999999999999787e+01 2.831533126229660371e-02
3.096000000000000085e+01 2.896114957685856292e-02
3.132000000000000739e+01 2.961327198364389554e-02
3.168000000000000327e+01 3.027164488199653170e-02
3.204000000000000625e+01 3.093621312952750738e-02
3.240000000000000568e+01 3.160691996891026173e-02
3.276000000000000512e+01 3.228370694939048519e-02
3.312000000000000455e+01 3.296651384257098111e-02
3.348000000000000398e+01 3.365527855199885315e-02
3.383999999999999631e+01 3.434993701602889749e-02
3.420000000000000284e+01 3.505042310339048783e-02
3.456000000000000227e+01 3.575666850083539239e-02
3.492000000000000171e+01 3.646860259217415967e-02
3.528000000000000114e+01 3.718615232795245695e-02
3.564000000000000767e+01 3.790924208492591624e-02
3.600000000000000000e+01 3.863779351444440041e-02
3.636000000000000654e+01 3.937172537871019840e-02
3.671999999999999886e+01 4.011095337384292664e-02
3.707999999999999829e+01 4.085538993850008904e-02
3.743999999999999773e+01 4.160494404673187319e-02
3.780000000000000426e+01 4.235952098357765455e-02
3.816000000000000369e+01 4.311902210177145922e-02
3.852000000000000313e+01 4.388334455774248188e-02
3.888000000000000966e+01 4.465238102490531880e-02
3.924000000000000199e+01 4.542601938202566608e-02
3.960000000000000853e+01 4.620414237420386594e-02
3.996000000000000085e+01 4.698662724374064875e-02
4.032000000000000028e+01 4.777334532787100990e-02
4.067999999999999972e+01 4.856416162000551373e-02
4.104000000000000625e+01 4.935893429074616340e-02
4.139999999999999858e+01 5.015751416453306799e-02
4.176000000000000512e+01 5.095974414731700014e-02
4.211999999999999744e+01 5.176545860012225775e-02
4.248000000000001108e+01 5.257448265281514793e-02
4.283999999999999631e+01 5.338663145171208824e-02
4.320000000000000284e+01 5.420170933399356961e-02
4.356000000000000227e+01 5.501950892105816199e-02
4.392000000000000171e+01 5.583981012209532357e-02
4.428000000000000114e+01 5.666237903817918781e-02
4.464000000000000057e+01 5.748696675611825180e-02
4.500000000000000000e+01 5.831330802012189146e-02
4.535999999999999943e+01 5.914111976806231408e-02
4.571999999999999886e+01 5.997009951774769781e-02
4.607999999999999829e+01 6.079992358710205325e-02
4.644000000000000483e+01 6.163024513060411796e-02
4.680000000000000426e+01 6.246069197266577999e-02
4.716000000000000369e+01 6.329086421695735709e-02
4.752000000000000313e+01 6.412033160900844353e-02
4.788000000000000256e+01 6.494863062781318364e-02
4.824000000000000199e+01 6.577526128078495238e-02
4.860000000000000142e+01 6.659968357532136674e-02
4.896000000000000085e+01 6.742131363971150260e-02
4.932000000000000739e+01 6.823951946640771649e-02
4.968000000000000682e+01 6.905361625210823528e-02
5.004000000000000625e+01 6.986286131221361440e-02
5.040000000000000568e+01 7.066644855257148139e-02
5.076000000000000512e+01 7.146350248987244635e-02
5.112000000000000455e+01 7.225307182457972599e-02
5.148000000000000398e+01 7.303412258812036484e-02
5.183999999999999631e+01 7.380553091080109540e-02
5.220000000000000284e+01 7.456607549024936443e-02
5.255999999999999517e+01 7.531442988426702290e-02
5.292000000000000881e+01 7.604915480891182022e-02
5.327999999999999403e+01 7.676869069461277062e-02
5.364000000000000767e+01 7.747135084195211352e-02
5.400000000000000711e+01 7.815531562530880771e-02
5.436000000000000654e+01 7.881862831608926756e-02
5.472000000000000597e+01 7.945919323421672675e-02
5.507999999999999829e+01 8.007477707927032617e-02
5.544000000000000483e+01 8.066301442767580265e-02
5.579999999999999716e+01 8.122141848898363492e-02
5.616000000000001080e+01 8.174739826352059313e-02
5.651999999999999602e+01 8.223828319858017544e-02
5.688000000000000966e+01 8.269135625855532357e-02
5.724000000000000199e+01 8.310389596465540818e-02
5.760000000000000853e+01 8.347322739188112184e-02
5.796000000000000796e+01 8.379678133013358787e-02
5.832000000000000028e+01 8.407215985908615685e-02
5.867999999999999972e+01 8.429720554267146337e-02
5.903999999999999915e+01 8.447007046432571109e-02
5.940000000000001279e+01 8.458928058474192435e-02
5.975999999999999801e+01 8.465379060203631623e-02
6.012000000000000455e+01 8.466302477756858236e-02
6.048000000000000398e+01 8.461690011020113478e-02
6.084000000000001052e+01 8.451582971771585961e-02
6.119999999999999574e+01 8.436070610775237011e-02
6.156000000000000227e+01 8.415286589686564456e-02
6.192000000000000171e+01 8.389403915688235791e-02
6.228000000000000114e+01 8.358628768839682088e-02
6.264000000000001478e+01 8.323193701703671121e-02
6.300000000000000000e+01 8.283350678870385342e-02
6.336000000000000654e+01 8.239364362619876203e-02
6.372000000000000597e+01 8.191505958476763549e-02
6.408000000000001251e+01 8.140047830136318274e-02
6.443999999999999773e+01 8.085258993348524992e-02
6.480000000000001137e+01 8.027401513734727656e-02
6.516000000000001080e+01 7.966727769500830947e-02
6.552000000000001023e+01 7.903478497337126929e-02
6.587999999999999545e+01 7.837881516113805180e-02
6.624000000000000909e+01 7.770151014397609635e-02
6.660000000000000853e+01 7.700487290038803001e-02
6.696000000000000796e+01 7.629076839192790171e-02
6.731999999999999318e+01 7.556092704965372553e-02
6.767999999999999261e+01 7.481695010069037977e-02
6.804000000000000625e+01 7.406031611872879172e-02
6.840000000000000568e+01 7.329238831087463157e-02
6.875999999999999091e+01 7.251442216567402510e-02
6.912000000000000455e+01 7.172757318183395348e-02
6.948000000000000398e+01 7.093290447459747738e-02
6.984000000000000341e+01 7.013139411845868698e-02
7.020000000000000284e+01 6.932394213300835384e-02
7.056000000000000227e+01 6.851137705539393774e-02
7.092000000000000171e+01 6.769446207027109141e-02
7.128000000000001535e+01 6.687390068806946253e-02
7.164000000000001478e+01 6.605034197655634820e-02
7.200000000000000000e+01 6.522438536034474987e-02
7.235999999999999943e+01 6.439658500929505702e-02
7.272000000000001307e+01 6.356745384053005821e-02
7.308000000000001251e+01 6.273746716072098328e-02
7.343999999999999773e+01 6.190706597591943972e-02
7.379999999999999716e+01 6.107665999592176015e-02
7.415999999999999659e+01 6.024663035923212562e-02
7.452000000000001023e+01 5.941733210337458299e-02
7.487999999999999545e+01 5.858909640378646977e-02
7.524000000000000909e+01 5.776223260283468858e-02
7.560000000000000853e+01 5.693703004884290847e-02
7.596000000000000796e+01 5.611375976331708232e-02
7.632000000000000739e+01 5.529267595298726495e-02
7.668000000000000682e+01 5.447401738174183217e-02
7.704000000000000625e+01 5.365800861611638717e-02
7.740000000000000568e+01 5.284486115669940337e-02
7.776000000000001933e+01 5.203477446658675426e-02
7.812000000000000455e+01 5.122793690694116969e-02
7.848000000000000398e+01 5.042452658868668003e-02
7.884000000000000341e+01 4.962471214847295059e-02
7.920000000000001705e+01 4.882865345622440512e-02
7.956000000000000227e+01 4.803650226084384828e-02
7.992000000000000171e+01 4.724840277998103300e-02
8.028000000000000114e+01 4.646449223917276800e-02
8.064000000000000057e+01 4.568490136513485289e-02
8.100000000000000000e+01 4.490975483749601316e-02
8.135999999999999943e+01 4.413917170283764013e-02
8.172000000000001307e+01 4.337326575451801169e-02
8.208000000000001251e+01 4.261214588141359200e-02
8.243999999999999773e+01 4.185591638839401135e-02
8.279999999999999716e+01 4.110467729108224083e-02
8.315999999999999659e+01 4.035852458719037944e-02
8.352000000000001023e+01 3.961755050650753868e-02
8.387999999999999545e+01 3.888184374140869065e-02
8.423999999999999488e+01 3.815148965958228139e-02
8.459999999999999432e+01 3.742657050050489376e-02
8.496000000000002217e+01 3.670716555705590828e-02
8.532000000000002160e+01 3.599335134352439625e-02
8.567999999999999261e+01 3.528520175115277407e-02
8.604000000000000625e+01 3.458278819225259898e-02
8.640000000000000568e+01 3.388617973383270532e-02
8.676000000000001933e+01 3.319544322159505984e-02
8.712000000000000455e+01 3.251064339507927364e-02
8.748000000000000398e+01 3.183184299466099848e-02
8.784000000000000341e+01 3.115910286105600183e-02
8.820000000000001705e+01 3.049248202791364493e-02
8.856000000000000227e+01 2.983203780804134439e-02
8.892000000000000171e+01 2.917782587375469805e-02
8.928000000000000114e+01 2.852990033179585855e-02
8.964000000000000057e+01 2.788831379323946161e-02
9.000000000000000000e+01 2.725311743875672918e-02
9.035999999999999943e+01 2.662436107958686057e-02
9.071999999999999886e+01 2.600209321453419639e-02
9.107999999999999829e+01 2.538636108327785301e-02
9.143999999999999773e+01 2.477721071626147811e-02
9.179999999999999716e+01 2.417468698141477315e-02
9.215999999999999659e+01 2.357883362792587839e-02
9.252000000000001023e+01 2.298969332727480303e-02
9.288000000000000966e+01 2.240730771172402824e-02
9.324000000000000909e+01 2.183171741043421141e-02
9.360000000000000853e+01 2.126296208337830063e-02
9.396000000000000796e+01 2.070108045319699053e-02
9.432000000000000739e+01 2.014611033513888719e-02
9.468000000000000682e+01 1.959808866521171172e-02
9.504000000000000625e+01 1.905705152666364519e-02
9.540000000000000568e+01 1.852303417490883466e-02
9.576000000000000512e+01 1.799607106099316428e-02
9.612000000000000455e+01 1.747619585369765416e-02
9.648000000000000398e+01 1.696344146037311040e-02
9.684000000000000341e+01 1.645784004657219537e-02
9.720000000000000284e+01 1.595942305457200699e-02
9.756000000000000227e+01 1.546822122084849128e-02
9.792000000000000171e+01 1.498426459256350061e-02
9.828000000000000114e+01 1.450758254313960251e-02
9.864000000000001478e+01 1.403820378696223233e-02
9.900000000000001421e+01 1.357615639327572343e-02
9.936000000000001364e+01 1.312146779931298336e-02
9.972000000000001307e+01 1.267416482271394550e-02
1.000800000000000125e+02 1.223427367326022051e-02
1.004400000000000119e+02 1.180181996398563943e-02
1.008000000000000114e+02 1.137682872168338868e-02
1.011600000000000108e+02 1.095932439685159791e-02
1.015200000000000102e+02 1.054933087311134970e-02
1.018800000000000097e+02 1.014687147612338379e-02
1.022400000000000091e+02 9.751968982032439490e-03
1.026000000000000085e+02 9.364645625469375512e-03
1.029600000000000080e+02 8.984923107133401671e-03
1.033200000000000074e+02 8.612822600975575740e-03
1.036799999999999926e+02 8.248364761011095503e-03
1.040400000000000063e+02 7.891569727773982759e-03
1.044000000000000057e+02 7.542457134440404797e-03
1.047600000000000051e+02 7.201046112632314075e-03
1.051199999999999903e+02 6.867355297924869137e-03
1.054800000000000182e+02 6.541402835063264178e-03
1.058400000000000176e+02 6.223206382919297189e-03
1.062000000000000171e+02 5.912783119183823849e-03
1.065599999999999881e+02 5.610149744825357679e-03
1.069200000000000017e+02 5.315322488312066926e-03
1.072800000000000153e+02 5.028317109620872305e-03
1.076400000000000148e+02 4.749148904036706517e-03
1.080000000000000142e+02 4.477832705755549654e-03
1.083599999999999994e+02 4.214382891300971420e-03
1.087200000000000131e+02 3.958813382761190193e-03
1.090800000000000125e+02 3.711137650859211348e-03
1.094400000000000119e+02 3.471368717857445645e-03
1.097999999999999972e+02 3.239519160311638696e-03
1.101599999999999966e+02 3.015601111676814196e-03
1.105200000000000102e+02 2.799626264773076231e-03
1.108800000000000097e+02 2.591605874115940518e-03
1.112399999999999949e+02 2.391550758121442025e-03
1.115999999999999943e+02 2.199471301187265384e-03
1.119600000000000222e+02 2.015377455654838567e-03
1.123200000000000216e+02 1.839278743661706831e-03
1.126799999999999926e+02 1.671184258883749111e-03
1.130399999999999920e+02 1.511102668176987542e-03
1.134000000000000057e+02 1.359042213113459147e-03
1.137600000000000193e+02 1.215010711429412218e-03
1.141200000000000045e+02 1.079015558373242834e-03
1.144800000000000040e+02 9.510637279709196947e-04
1.148400000000000034e+02 8.311617741989339855e-04
1.152000000000000171e+02 7.193158320790330558e-04
1.155600000000000165e+02 6.155316186898627953e-04
1.159200000000000159e+02 5.198144340990112477e-04
1.162800000000000153e+02 4.321691622228761797e-04
1.166400000000000006e+02 3.526002716075155095e-04
1.170000000000000000e+02 2.811118161399402560e-04
1.173599999999999994e+02 2.177074356903590158e-04
1.177199999999999989e+02 1.623903566796990364e-04
1.180799999999999983e+02 1.151633925853546414e-04
1.184400000000000261e+02 7.602894437614120954e-05
1.188000000000000256e+02 4.498900088453059343e-05
1.191600000000000250e+02 2.204513911129354960e-05
1.195199999999999960e+02 7.198524467059924734e-06
1.198800000000000097e+02 4.499109520336096808e-07
1.202400000000000091e+02 1.799641270951933836e-06
1.206000000000000085e+02 1.124764688256184386e-05
1.209600000000000080e+02 2.879344799496332097e-05
1.213200000000000074e+02 5.443615348535609644e-05
1.216800000000000210e+02 8.817446077031018496e-05
1.220400000000000205e+02 1.300066556016038499e-04
1.223999999999999915e+02 1.799306118047273970e-04
1.227600000000000051e+02 2.379437909526314161e-04
1.231200000000000045e+02 3.040432419726820604e-04
1.234800000000000040e+02 3.782256006855140161e-04
1.238400000000000034e+02 4.604870892829110180e-04
1.242000000000000028e+02 5.508235157325638408e-04
1.245600000000000023e+02 6.492302731144344863e-04
1.249200000000000301e+02 7.557023388849434592e-04
1.252800000000000296e+02 8.702342740723269026e-04
1.256399999999999864e+02 9.928202223908673841e-04
1.260000000000000000e+02 1.123453909283747641e-03
1.263600000000000136e+02 1.262128640883833147e-03
1.267200000000000131e+02 1.408837302891798472e-03
1.270800000000000125e+02 1.563572359375821471e-03
1.274400000000000119e+02 1.726325851473996904e-03
1.278000000000000114e+02 1.897089396019262762e-03
1.281600000000000250e+02 2.075854184058679129e-03
1.285199999999999818e+02 2.262610979280886385e-03
1.288799999999999955e+02 2.457350116347739241e-03
1.292400000000000091e+02 2.660061499109379717e-03
1.296000000000000227e+02 2.870734598720359534e-03
1.299600000000000080e+02 3.089358451634471089e-03
1.303200000000000216e+02 3.315921657485712895e-03
1.306800000000000068e+02 3.550412376841414596e-03
1.310400000000000205e+02 3.792818328826870998e-03
1.314000000000000341e+02 4.043126788614280834e-03
1.317599999999999909e+02 4.301324584767621077e-03
1.321200000000000045e+02 4.567398096439601388e-03
1.324800000000000182e+02 4.841333250412919315e-03
1.328400000000000034e+02 5.123115517974525385e-03
1.332000000000000171e+02 5.412729911620874079e-03
1.335600000000000023e+02 5.710160981580040922e-03
1.339200000000000159e+02 6.015392812142258440e-03
1.342800000000000011e+02 6.328409017796340907e-03
1.346399999999999864e+02 6.649192739146950193e-03
1.350000000000000000e+02 6.977726638615257965e-03
1.353599999999999852e+02 7.313992895906423763e-03
1.357199999999999989e+02 7.657973203228370974e-03
1.360800000000000125e+02 8.009648760251186078e-03
1.364400000000000261e+02 8.369000268793880953e-03
1.368000000000000114e+02 8.736007927221510136e-03
1.371600000000000250e+02 9.110651424535239420e-03
1.375199999999999818e+02 9.492909934143584430e-03
1.378799999999999955e+02 9.882762107286511069e-03
1.382400000000000091e+02 1.028018606610630811e-02
1.385999999999999943e+02 1.068515939632880794e-02
1.389600000000000080e+02 1.109765913954824032e-02
1.393200000000000216e+02 1.151766178507842610e-02
1.396800000000000068e+02 1.194514326135367663e-02
1.400400000000000205e+02 1.238007892684968476e-02
1.404000000000000057e+02 1.282244356049192131e-02
1.407599999999999909e+02 1.327221135152669394e-02
1.411200000000000045e+02 1.372935588881740374e-02
1.414799999999999898e+02 1.419385014953094756e-02
1.418400000000000034e+02 1.466566648717678237e-02
1.422000000000000171e+02 1.514477661896007112e-02
1.425600000000000307e+02 1.563115161239845771e-02
1.429200000000000159e+02 1.612476187116547097e-02
1.432800000000000296e+02 1.662557712010251376e-02
