Theta (degrees)	Normalized Energy
0.000000000000000000e+00 2.926924133535956374e-01
1.801801801801801717e-01 2.926855718870460810e-01
3.603603603603603434e-01 2.926650575211173777e-01
5.405405405405404595e-01 2.926309002796808056e-01
7.207207207207206867e-01 2.925831499462733243e-01
9.009009009009008029e-01 2.925218756845595625e-01
1.081081081081080919e+00 2.924471655164770922e-01
1.261261261261261035e+00 2.923591256672034566e-01
1.441441441441441373e+00 2.922578797881898449e-01
1.621621621621621712e+00 2.921435680712787808e-01
1.801801801801801606e+00 2.920163462682983657e-01
1.981981981981981944e+00 2.918763846315279853e-01
2.162162162162161838e+00 2.917238667909624605e-01
2.342342342342341954e+00 2.915589885845094598e-01
2.522522522522522070e+00 2.913819568570024665e-01
2.702702702702702631e+00 2.911929882433883510e-01
2.882882882882882747e+00 2.909923079505678523e-01
3.063063063063062419e+00 2.907801485512948036e-01
3.243243243243243423e+00 2.905567488022484657e-01
3.423423423423423095e+00 2.903223524969595903e-01
3.603603603603603212e+00 2.900772073628099523e-01
3.783783783783783328e+00 2.898215640097451251e-01
3.963963963963963888e+00 2.895556749368800031e-01
4.144144144144143560e+00 2.892797936016760496e-01
4.324324324324323676e+00 2.889941735550047297e-01
4.504504504504503792e+00 2.886990676441332226e-01
4.684684684684683909e+00 2.883947272845199250e-01
4.864864864864864913e+00 2.880814018002811894e-01
5.045045045045044141e+00 2.877593378323040074e-01
5.225225225225224257e+00 2.874287788122560916e-01
5.405405405405405261e+00 2.870899645000923317e-01
5.585585585585585378e+00 2.867431305822073506e-01
5.765765765765765494e+00 2.863885083269911425e-01
5.945945945945945610e+00 2.860263242942898132e-01
6.126126126126124838e+00 2.856568000950868158e-01
6.306306306306305842e+00 2.852801521976576771e-01
6.486486486486486847e+00 2.848965917764101907e-01
6.666666666666666075e+00 2.845063245996594659e-01
6.846846846846846191e+00 2.841095509527080676e-01
7.027027027027027195e+00 2.837064655926818113e-01
7.207207207207206423e+00 2.832972577317599550e-01
7.387387387387387427e+00 2.828821110456115617e-01
7.567567567567566655e+00 2.824612037040225565e-01
7.747747747747746772e+00 2.820347084209309796e-01
7.927927927927927776e+00 2.816027925212544747e-01
8.108108108108107004e+00 2.811656180221393520e-01
8.288288288288287120e+00 2.807233417264254349e-01
8.468468468468467236e+00 2.802761153263451099e-01
8.648648648648647352e+00 2.798240855156484130e-01
8.828828828828829245e+00 2.793673941085246248e-01
9.009009009009007585e+00 2.789061781638686455e-01
9.189189189189187701e+00 2.784405701135926336e-01
9.369369369369367817e+00 2.779706978938276118e-01
9.549549549549547933e+00 2.774966850780026806e-01
9.729729729729729826e+00 2.770186510109104439e-01
9.909909909909908166e+00 2.765367109429800463e-01
1.009009009009008828e+01 2.760509761640890236e-01
1.027027027027027017e+01 2.755615541363339860e-01
1.045045045045044851e+01 2.750685486252639200e-01
1.063063063063063041e+01 2.745720598291659931e-01
1.081081081081081052e+01 2.740721845060511419e-01
1.099099099099099064e+01 2.735690160980520091e-01
1.117117117117117076e+01 2.730626448530042993e-01
1.135135135135134909e+01 2.725531579430207629e-01
1.153153153153153099e+01 2.720406395799200294e-01
1.171171171171171110e+01 2.715251711274029311e-01
1.189189189189189122e+01 2.710068312098964372e-01
1.207207207207207311e+01 2.704856958180325011e-01
1.225225225225224968e+01 2.699618384107277391e-01
1.243243243243243157e+01 2.694353300138680463e-01
1.261261261261261168e+01 2.689062393156205211e-01
1.279279279279279180e+01 2.683746327583959035e-01
1.297297297297297369e+01 2.678405746275124288e-01
1.315315315315315381e+01 2.673041271366153326e-01
1.333333333333333215e+01 2.667653505099165656e-01
1.351351351351351227e+01 2.662243030613251071e-01
1.369369369369369238e+01 2.656810412705446489e-01
1.387387387387387427e+01 2.651356198562217492e-01
1.405405405405405439e+01 2.645880918462267251e-01
1.423423423423423273e+01 2.640385086451542684e-01
1.441441441441441285e+01 2.634869200991343252e-01
1.459459459459459296e+01 2.629333745580386128e-01
1.477477477477477485e+01 2.623779189351729269e-01
1.495495495495495497e+01 2.618205987645491617e-01
1.513513513513513331e+01 2.612614582558125953e-01
1.531531531531531520e+01 2.607005403469259130e-01
1.549549549549549354e+01 2.601378867546853546e-01
1.567567567567567544e+01 2.595735380231544709e-01
1.585585585585585555e+01 2.590075335701007009e-01
1.603603603603603744e+01 2.584399117315097638e-01
1.621621621621621401e+01 2.578707098042572476e-01
1.639639639639639412e+01 2.572999640870164417e-01
1.657657657657657424e+01 2.567277099194666401e-01
1.675675675675675791e+01 2.561539817198815183e-01
1.693693693693693447e+01 2.555788130211583131e-01
1.711711711711711814e+01 2.550022365053613571e-01
1.729729729729729470e+01 2.544242840368331482e-01
1.747747747747747482e+01 2.538449866939466171e-01
1.765765765765765849e+01 2.532643747995436123e-01
1.783783783783783861e+01 2.526824779501291030e-01
1.801801801801801517e+01 2.520993250438646194e-01
1.819819819819819884e+01 2.515149443074203295e-01
1.837837837837837540e+01 2.509293633217324349e-01
1.855855855855855907e+01 2.503426090467136267e-01
1.873873873873873563e+01 2.497547078449630364e-01
1.891891891891891930e+01 2.491656855045208951e-01
1.909909909909909587e+01 2.485755672607099787e-01
1.927927927927927598e+01 2.479843778170983670e-01
1.945945945945945965e+01 2.473921413656322010e-01
1.963963963963963977e+01 2.467988816059670520e-01
1.981981981981981633e+01 2.462046217640382062e-01
2.000000000000000000e+01 2.456093846098973132e-01
2.018018018018017656e+01 2.450131924748565615e-01
2.036036036036036023e+01 2.444160672679663859e-01
2.054054054054054035e+01 2.438180304918519670e-01
2.072072072072071691e+01 2.432191032579457401e-01
2.090090090090089703e+01 2.426193063011370665e-01
2.108108108108108070e+01 2.420186599938662919e-01
2.126126126126126081e+01 2.414171843596850664e-01
2.144144144144144093e+01 2.408148990863143435e-01
2.162162162162162105e+01 2.402118235382133815e-01
2.180180180180180116e+01 2.396079767686857542e-01
2.198198198198198128e+01 2.390033775315432429e-01
2.216216216216215784e+01 2.383980442923483989e-01
2.234234234234234151e+01 2.377919952392478220e-01
2.252252252252251807e+01 2.371852482934237449e-01
2.270270270270269819e+01 2.365778211191744418e-01
2.288288288288288186e+01 2.359697311336428627e-01
2.306306306306306197e+01 2.353609955162065948e-01
2.324324324324324209e+01 2.347516312175483844e-01
2.342342342342342221e+01 2.341416549684189885e-01
2.360360360360360232e+01 2.335310832881042631e-01
2.378378378378378244e+01 2.329199324926153614e-01
2.396396396396396256e+01 2.323082187026092316e-01
2.414414414414414622e+01 2.316959578510547346e-01
2.432432432432431924e+01 2.310831656906552067e-01
2.450450450450449935e+01 2.304698578010395404e-01
2.468468468468468302e+01 2.298560495957282512e-01
2.486486486486486314e+01 2.292417563288941529e-01
2.504504504504504325e+01 2.286269931019161983e-01
2.522522522522522337e+01 2.280117748697453317e-01
2.540540540540540349e+01 2.273961164470863494e-01
2.558558558558558360e+01 2.267800325144046503e-01
2.576576576576576372e+01 2.261635376237729478e-01
2.594594594594594739e+01 2.255466462045539466e-01
2.612612612612612040e+01 2.249293725689408274e-01
2.630630630630630762e+01 2.243117309173503215e-01
2.648648648648648418e+01 2.236937353436875831e-01
2.666666666666666430e+01 2.230753998404801375e-01
2.684684684684684441e+01 2.224567383038931201e-01
2.702702702702702453e+01 2.218377645386309382e-01
2.720720720720720465e+01 2.212184922627351280e-01
2.738738738738738476e+01 2.205989351122755737e-01
2.756756756756756488e+01 2.199791066459539091e-01
2.774774774774774855e+01 2.193590203496151303e-01
2.792792792792792156e+01 2.187386896406759984e-01
2.810810810810810878e+01 2.181181278724796946e-01
2.828828828828828534e+01 2.174973483385740647e-01
2.846846846846846546e+01 2.168763642769301336e-01
2.864864864864864558e+01 2.162551888740938399e-01
2.882882882882882569e+01 2.156338352692853955e-01
2.900900900900900581e+01 2.150123165584480467e-01
2.918918918918918592e+01 2.143906457982505120e-01
2.936936936936936249e+01 2.137688360100479246e-01
2.954954954954954971e+01 2.131469001838098565e-01
2.972972972972972983e+01 2.125248512820130664e-01
2.990990990990990994e+01 2.119027022435130692e-01
3.009009009009008651e+01 2.112804659873906699e-01
3.027027027027026662e+01 2.106581554167814008e-01
3.045045045045044674e+01 2.100357834226970755e-01
3.063063063063063041e+01 2.094133628878333264e-01
3.081081081081081408e+01 2.087909066903807231e-01
3.099099099099098709e+01 2.081684277078330869e-01
3.117117117117117076e+01 2.075459388208055200e-01
3.135135135135135087e+01 2.069234529168601511e-01
3.153153153153152743e+01 2.063009828943521418e-01
3.171171171171171110e+01 2.056785416662927080e-01
3.189189189189189122e+01 2.050561421642391469e-01
3.207207207207207489e+01 2.044337973422151178e-01
3.225225225225224790e+01 2.038115201806675325e-01
3.243243243243242802e+01 2.031893236904603883e-01
3.261261261261260813e+01 2.025672209169188942e-01
3.279279279279278825e+01 2.019452249439195601e-01
3.297297297297297547e+01 2.013233488980409325e-01
3.315315315315314848e+01 2.007016059527721996e-01
3.333333333333332860e+01 2.000800093327901596e-01
3.351351351351351582e+01 1.994585723183101289e-01
3.369369369369368883e+01 1.988373082495148991e-01
3.387387387387386894e+01 1.982162305310681272e-01
3.405405405405405617e+01 1.975953526367182356e-01
3.423423423423423628e+01 1.969746881140033157e-01
3.441441441441441640e+01 1.963542505890551459e-01
3.459459459459458941e+01 1.957340537715185624e-01
3.477477477477476953e+01 1.951141114595865977e-01
3.495495495495494964e+01 1.944944375451626017e-01
3.513513513513512976e+01 1.938750460191553115e-01
3.531531531531531698e+01 1.932559509769143646e-01
3.549549549549549710e+01 1.926371666238159697e-01
3.567567567567567721e+01 1.920187072810081441e-01
3.585585585585585022e+01 1.914005873913191269e-01
3.603603603603603034e+01 1.907828215253467852e-01
3.621621621621621046e+01 1.901654243877309025e-01
3.639639639639639768e+01 1.895484108236229759e-01
3.657657657657657779e+01 1.889317958253626528e-01
3.675675675675675080e+01 1.883155945393726605e-01
3.693693693693693803e+01 1.876998222732816080e-01
3.711711711711711814e+01 1.870844945032905660e-01
3.729729729729729115e+01 1.864696268817916669e-01
3.747747747747747127e+01 1.858552352452562950e-01
3.765765765765765849e+01 1.852413356224028307e-01
3.783783783783783861e+01 1.846279442426614903e-01
3.801801801801801162e+01 1.840150775449495846e-01
3.819819819819819173e+01 1.834027521867752641e-01
3.837837837837837185e+01 1.827909850536831304e-01
3.855855855855855197e+01 1.821797932690641386e-01
3.873873873873873919e+01 1.815691942043422269e-01
3.891891891891891930e+01 1.809592054895641511e-01
3.909909909909909942e+01 1.803498450244071516e-01
3.927927927927927954e+01 1.797411309896286835e-01
3.945945945945945255e+01 1.791330818589806362e-01
3.963963963963963266e+01 1.785257164116099693e-01
3.981981981981981988e+01 1.779190537449750753e-01
4.000000000000000000e+01 1.773131132882992400e-01
4.018018018018018012e+01 1.767079148165912328e-01
4.036036036036035313e+01 1.761034784652626140e-01
4.054054054054054035e+01 1.754998247453718740e-01
4.072072072072072046e+01 1.748969745595284619e-01
4.090090090090090058e+01 1.742949492184886207e-01
4.108108108108108070e+01 1.736937704584815834e-01
4.126126126126126081e+01 1.730934604593026283e-01
4.144144144144143382e+01 1.724940418632147920e-01
4.162162162162162105e+01 1.718955377946963237e-01
4.180180180180179406e+01 1.712979718810857810e-01
4.198198198198197417e+01 1.707013682741641003e-01
4.216216216216216139e+01 1.701057516727284002e-01
4.234234234234234151e+01 1.695111473462064811e-01
4.252252252252252163e+01 1.689175811593684740e-01
4.270270270270269464e+01 1.683250795981920123e-01
4.288288288288288186e+01 1.677336697969428192e-01
4.306306306306305487e+01 1.671433795665359101e-01
4.324324324324324209e+01 1.665542374242421075e-01
4.342342342342342931e+01 1.659662726248157527e-01
4.360360360360360232e+01 1.653795151931135299e-01
4.378378378378377533e+01 1.647939959582897240e-01
4.396396396396396256e+01 1.642097465896447672e-01
4.414414414414414267e+01 1.636267996342228026e-01
4.432432432432431568e+01 1.630451885562432812e-01
4.450450450450450290e+01 1.624649477784693707e-01
4.468468468468468302e+01 1.618861127256137344e-01
4.486486486486486314e+01 1.613087198698904545e-01
4.504504504504503615e+01 1.607328067788242887e-01
4.522522522522522337e+01 1.601584121654414938e-01
4.540540540540539638e+01 1.595855759409589847e-01
4.558558558558558360e+01 1.590143392701120206e-01
4.576576576576576372e+01 1.584447446292512884e-01
4.594594594594594383e+01 1.578768358673570960e-01
4.612612612612612395e+01 1.573106582701166711e-01
4.630630630630629696e+01 1.567462586272266589e-01
4.648648648648648418e+01 1.561836853030824368e-01
4.666666666666665719e+01 1.556229883110210044e-01
4.684684684684684441e+01 1.550642193913004674e-01
4.702702702702703164e+01 1.545074320929976375e-01
4.720720720720720465e+01 1.539526818600093772e-01
4.738738738738738476e+01 1.534000261213601390e-01
4.756756756756756488e+01 1.528495243860129305e-01
4.774774774774774500e+01 1.523012383423888449e-01
4.792792792792792511e+01 1.517552319628115154e-01
4.810810810810810523e+01 1.512115716130835452e-01
4.828828828828829245e+01 1.506703261674130767e-01
4.846846846846846546e+01 1.501315671289091824e-01
4.864864864864863847e+01 1.495953687558564671e-01
4.882882882882882569e+01 1.490618081939846518e-01
4.900900900900899870e+01 1.485309656149361723e-01
4.918918918918918592e+01 1.480029243611276635e-01
4.936936936936936604e+01 1.474777710971943712e-01
4.954954954954954616e+01 1.469555959681763668e-01
4.972972972972972627e+01 1.464364927646011894e-01
4.990990990990989928e+01 1.459205590945726883e-01
5.009009009009008651e+01 1.454078965629538311e-01
5.027027027027027373e+01 1.448986109576866632e-01
5.045045045045044674e+01 1.443928124432353466e-01
5.063063063063063396e+01 1.438906157610901904e-01
5.081081081081080697e+01 1.433921404371823749e-01
5.099099099099098709e+01 1.428975109959918222e-01
5.117117117117116720e+01 1.424068571810117589e-01
5.135135135135135442e+01 1.419203141811384572e-01
5.153153153153152743e+01 1.414380228623977609e-01
5.171171171171170755e+01 1.409601300042805927e-01
5.189189189189189477e+01 1.404867885397781679e-01
5.207207207207206778e+01 1.400181577979983938e-01
5.225225225225224079e+01 1.395544037480235255e-01
5.243243243243242802e+01 1.390956992424027538e-01
5.261261261261261524e+01 1.386422242583901510e-01
5.279279279279278825e+01 1.381941661347033390e-01
5.297297297297296836e+01 1.377517198012326027e-01
5.315315315315314848e+01 1.373150879987230510e-01
5.333333333333332860e+01 1.368844814850295466e-01
5.351351351351350161e+01 1.364601192240790795e-01
5.369369369369368883e+01 1.360422285531677211e-01
5.387387387387387605e+01 1.356310453236997116e-01
5.405405405405404906e+01 1.352268140099197047e-01
5.423423423423423628e+01 1.348297877796185706e-01
5.441441441441440929e+01 1.344402285202187797e-01
5.459459459459458941e+01 1.340584068130803719e-01
5.477477477477476953e+01 1.336846018483239251e-01
5.495495495495495675e+01 1.333191012719674717e-01
5.513513513513512976e+01 1.329622009567619778e-01
5.531531531531530987e+01 1.326142046877766822e-01
5.549549549549549710e+01 1.322754237536019617e-01
5.567567567567567011e+01 1.319461764340350840e-01
5.585585585585584312e+01 1.316267873753086681e-01
5.603603603603603034e+01 1.313175868443971217e-01
5.621621621621621756e+01 1.310189098546986897e-01
5.639639639639639057e+01 1.307310951565206214e-01
5.657657657657657069e+01 1.304544840872952638e-01
5.675675675675675080e+01 1.301894192783847048e-01
5.693693693693693092e+01 1.299362432177008086e-01
5.711711711711711814e+01 1.296952966701724053e-01
5.729729729729729115e+01 1.294669169613335280e-01
5.747747747747747837e+01 1.292514361329372974e-01
5.765765765765765138e+01 1.290491789834425362e-01
5.783783783783783150e+01 1.288604610103992465e-01
5.801801801801801162e+01 1.286855862760339642e-01
5.819819819819819173e+01 1.285248452215347059e-01
5.837837837837837185e+01 1.283785124595219207e-01
5.855855855855855197e+01 1.282468445777103228e-01
5.873873873873872498e+01 1.281300779896473729e-01
5.891891891891891930e+01 1.280284268704482142e-01
5.909909909909909942e+01 1.279420812164322463e-01
5.927927927927927954e+01 1.278712050673782297e-01
5.945945945945945965e+01 1.278159349286170088e-01
5.963963963963963266e+01 1.277763784273817371e-01
5.981981981981981988e+01 1.277526132337000186e-01
5.999999999999999289e+01 1.277446862708048192e-01
6.018018018018017301e+01 1.277526132336997966e-01
6.036036036036035313e+01 1.277763784273817926e-01
6.054054054054053324e+01 1.278159349286170643e-01
6.072072072072070625e+01 1.278712050673781742e-01
6.090090090090089348e+01 1.279420812164323296e-01
6.108108108108106649e+01 1.280284268704481587e-01
6.126126126126126081e+01 1.281300779896473729e-01
6.144144144144144093e+01 1.282468445777102672e-01
6.162162162162162815e+01 1.283785124595219207e-01
6.180180180180180116e+01 1.285248452215345394e-01
6.198198198198197417e+01 1.286855862760340197e-01
6.216216216216216139e+01 1.288604610103992465e-01
6.234234234234234151e+01 1.290491789834423142e-01
6.252252252252251452e+01 1.292514361329373807e-01
6.270270270270270174e+01 1.294669169613334447e-01
6.288288288288287475e+01 1.296952966701725440e-01
6.306306306306305487e+01 1.299362432177008919e-01
6.324324324324323499e+01 1.301894192783848436e-01
6.342342342342342221e+01 1.304544840872955691e-01
6.360360360360360943e+01 1.307310951565206769e-01
6.378378378378378244e+01 1.310189098546988284e-01
6.396396396396396256e+01 1.313175868443972050e-01
6.414414414414414978e+01 1.316267873753087514e-01
6.432432432432432279e+01 1.319461764340348620e-01
6.450450450450449580e+01 1.322754237536021005e-01
6.468468468468468302e+01 1.326142046877770431e-01
6.486486486486485603e+01 1.329622009567621166e-01
6.504504504504502904e+01 1.333191012719674717e-01
6.522522522522521626e+01 1.336846018483241472e-01
6.540540540540538927e+01 1.340584068130804551e-01
6.558558558558557650e+01 1.344402285202188352e-01
6.576576576576576372e+01 1.348297877796187094e-01
6.594594594594595094e+01 1.352268140099199267e-01
6.612612612612612395e+01 1.356310453236997671e-01
6.630630630630629696e+01 1.360422285531679432e-01
6.648648648648648418e+01 1.364601192240793015e-01
6.666666666666665719e+01 1.368844814850297686e-01
6.684684684684684441e+01 1.373150879987229123e-01
6.702702702702703164e+01 1.377517198012328248e-01
6.720720720720720465e+01 1.381941661347036443e-01
6.738738738738737766e+01 1.386422242583900954e-01
6.756756756756756488e+01 1.390956992424031147e-01
6.774774774774773789e+01 1.395544037480236921e-01
6.792792792792791090e+01 1.400181577979986991e-01
6.810810810810811233e+01 1.404867885397784733e-01
6.828828828828828534e+01 1.409601300042805094e-01
6.846846846846847257e+01 1.414380228623976776e-01
6.864864864864864558e+01 1.419203141811385960e-01
6.882882882882883280e+01 1.424068571810117034e-01
6.900900900900900581e+01 1.428975109959916001e-01
6.918918918918917882e+01 1.433921404371825137e-01
6.936936936936936604e+01 1.438906157610903569e-01
6.954954954954953905e+01 1.443928124432354299e-01
6.972972972972972627e+01 1.448986109576868853e-01
6.990990990990989928e+01 1.454078965629539144e-01
7.009009009009008651e+01 1.459205590945727715e-01
7.027027027027025952e+01 1.464364927646014114e-01
7.045045045045044674e+01 1.469555959681765056e-01
7.063063063063063396e+01 1.474777710971939271e-01
7.081081081081080697e+01 1.480029243611278855e-01
7.099099099099099419e+01 1.485309656149363944e-01
7.117117117117116720e+01 1.490618081939850126e-01
7.135135135135135442e+01 1.495953687558565504e-01
7.153153153153152743e+01 1.501315671289092657e-01
7.171171171171170045e+01 1.506703261674129934e-01
