Theta (degrees)	Normalized Energy
0.000000000000000000e+00 2.926924182299651678e-01
1.441441441441441373e+00 2.922578846573199440e-01
2.882882882882882747e+00 2.909923127986129843e-01
4.324324324324323676e+00 2.889941783697602129e-01
5.765765765765765494e+00 2.863885130983351845e-01
7.207207207207206423e+00 2.832972624516025828e-01
8.648648648648647352e+00 2.798240901776266054e-01
1.009009009009008828e+01 2.760509807632057777e-01
1.153153153153153099e+01 2.720406441122230068e-01
1.297297297297297369e+01 2.678405790898407135e-01
1.441441441441441285e+01 2.634869244889290196e-01
1.585585585585585555e+01 2.590075378852670362e-01
1.729729729729729470e+01 2.544242882756407864e-01
1.873873873873873563e+01 2.497547120059736836e-01
2.018018018018017656e+01 2.450131965568717318e-01
2.162162162162162105e+01 2.402118275402358727e-01
2.306306306306306197e+01 2.353609994374123993e-01
2.450450450450449935e+01 2.304698616407570844e-01
2.594594594594594739e+01 2.255466499622488796e-01
2.738738738738738476e+01 2.205989387875396945e-01
2.882882882882882569e+01 2.156338388618290469e-01
3.027027027027026662e+01 2.106581589264282517e-01
3.171171171171171110e+01 2.056785450929772829e-01
3.315315315315314848e+01 2.007016092965390741e-01
3.459459459459458941e+01 1.957340570325240836e-01
3.603603603603603034e+01 1.907828247038628466e-01
3.747747747747747127e+01 1.858552383416768594e-01
3.891891891891891930e+01 1.809592085044149368e-01
4.036036036036035313e+01 1.761034813992151116e-01
4.180180180180179406e+01 1.712979747349766546e-01
4.324324324324324209e+01 1.665542401991005339e-01
4.468468468468468302e+01 1.618861154226993726e-01
4.612612612612612395e+01 1.573106608909734527e-01
4.756756756756756488e+01 1.528495269325454986e-01
4.900900900900899870e+01 1.485309680895198492e-01
5.045045045045044674e+01 1.443928148488758112e-01
5.189189189189189477e+01 1.404867908803427434e-01
5.333333333333332860e+01 1.368844837655782687e-01
5.477477477477476953e+01 1.336846040755614029e-01
5.621621621621621756e+01 1.310189120375246929e-01
5.765765765765765138e+01 1.290491811334520678e-01
5.909909909909909942e+01 1.279420833479970876e-01
6.054054054054053324e+01 1.278159370580802812e-01
6.198198198198197417e+01 1.286855884199859523e-01
6.342342342342342221e+01 1.304544862607180111e-01
6.486486486486485603e+01 1.329622031719641106e-01
6.630630630630629696e+01 1.360422308196843899e-01
6.774774774774773789e+01 1.395544060730543601e-01
6.918918918918917882e+01 1.433921428261513697e-01
7.063063063063063396e+01 1.474777735542310009e-01
7.207207207207206068e+01 1.517552344911130835e-01
7.351351351351350161e+01 1.561836879051637095e-01
7.495495495495494254e+01 1.607328094566956855e-01
7.639639639639638347e+01 1.653795179484006950e-01
7.783783783783783861e+01 1.701057545067565235e-01
7.927927927927926532e+01 1.748969774733803439e-01
8.072072072072070625e+01 1.797411339841861744e-01
8.216216216216216139e+01 1.846279473186346887e-01
8.360360360360358811e+01 1.895484139815731273e-01
8.504504504504504325e+01 1.944944407855156432e-01
8.648648648648648418e+01 1.994585756413676525e-01
8.792792792792792511e+01 2.044338007481621144e-01
8.936936936936936604e+01 2.094133663767417664e-01
9.081081081081079276e+01 2.143906493700823424e-01
9.225225225225224790e+01 2.193590240042216366e-01
9.369369369369368883e+01 2.243117346544710733e-01
9.513513513513512976e+01 2.292417601481509248e-01
9.657657657657658490e+01 2.341416588693102652e-01
9.801801801801799741e+01 2.390033815134326445e-01
9.945945945945945255e+01 2.438180345539552041e-01
1.009009009009008935e+02 2.485755714020757012e-01
1.023423423423423344e+02 2.532643790190268751e-01
1.037837837837837895e+02 2.578707141004837333e-01
1.052252252252252305e+02 2.623779233064913452e-01
1.066666666666666572e+02 2.667653549543309577e-01
1.081081081081080981e+02 2.710068357249754145e-01
1.095495495495495391e+02 2.750685532080131557e-01
1.109909909909909942e+02 2.789061828105539043e-01
1.124324324324324351e+02 2.824612084099364928e-01
1.138738738738738618e+02 2.856568048542406091e-01
1.153153153153153028e+02 2.883947320892885080e-01
1.167567567567567437e+02 2.905567536430370135e-01
1.181981981981981988e+02 2.920163511334045725e-01
1.196396396396396398e+02 2.926650623970313281e-01
1.210810810810810665e+02 2.924471703887610019e-01
1.225225225225225216e+02 2.913819617115392946e-01
1.239639639639639483e+02 2.895556797609904476e-01
1.254054054054054035e+02 2.870899692831227479e-01
1.268468468468468444e+02 2.841095556860844251e-01
1.282882882882882996e+02 2.807233464033854764e-01
1.297297297297297121e+02 2.770186556261487465e-01
1.311711711711711530e+02 2.730626494023338791e-01
1.326126126126125939e+02 2.689062437957033258e-01
1.340540540540540633e+02 2.645880962543670223e-01
1.354954954954954758e+02 2.601378910886839035e-01
1.369369369369369451e+02 2.555788172792006208e-01
1.383783783783783576e+02 2.509293675023133163e-01
1.398198198198197986e+02 2.462046258659029707e-01
1.412612612612612679e+02 2.414171883817893272e-01
1.427027027027027088e+02 2.365778250606532795e-01
1.441441441441441214e+02 2.316959617111996605e-01
1.455855855855855907e+02 2.267800362926483404e-01
1.470270270270270032e+02 2.218377682345344382e-01
1.484684684684684726e+02 2.168763678901747260e-01
1.499099099099098851e+02 2.119027057738946396e-01
1.513513513513513544e+02 2.069234563642854963e-01
1.527927927927927669e+02 2.019452283084058331e-01
1.542342342342342079e+02 1.969746913956784973e-01
1.556756756756756772e+02 1.920187104801144851e-01
1.571171171171171181e+02 1.870844976201912202e-01
1.585585585585585306e+02 1.821797963042504631e-01
1.600000000000000000e+02 1.773131162424048668e-01
1.614414414414414125e+02 1.724940447370326702e-01
1.628828828828828819e+02 1.677336725914511106e-01
1.643243243243243228e+02 1.630451912726397223e-01
1.657657657657657353e+02 1.584447472690026781e-01
1.672072072072071762e+02 1.539526844249211046e-01
1.686486486486486456e+02 1.495953712481738196e-01
1.700900900900900865e+02 1.454078989855061843e-01
1.715315315315315274e+02 1.414380252188101039e-01
1.729729729729729684e+02 1.377517220962301281e-01
1.744144144144144093e+02 1.344402307600453539e-01
1.758558558558558502e+02 1.316267895682621814e-01
1.772972972972972627e+02 1.294669191183030199e-01
1.787387387387387321e+02 1.281300801243446807e-01
1.801801801801801446e+02 1.277526153621083294e-01
1.816216216216215855e+02 1.283785145983579457e-01
1.830630630630630549e+02 1.299362453824894070e-01
1.845045045045044958e+02 1.322754259573622748e-01
1.859459459459459367e+02 1.352268162628512682e-01
1.873873873873873777e+02 1.386422265682236976e-01
1.888288288288288186e+02 1.424068595535652737e-01
1.902702702702702595e+02 1.464364952042904455e-01
1.917117117117117004e+02 1.506703286776395478e-01
1.931531531531531698e+02 1.550642219747307149e-01
1.945945945945945539e+02 1.595855785997168652e-01
1.960360360360359948e+02 1.642097493254427443e-01
1.974774774774774642e+02 1.689175839736009599e-01
1.989189189189189051e+02 1.736937733522873895e-01
2.003603603603603460e+02 1.785257193859177416e-01
2.018018018018017870e+02 1.834027552423365681e-01
2.032432432432432279e+02 1.883155976767838524e-01
2.046846846846846688e+02 1.932559541966337169e-01
2.061261261261261097e+02 1.982162338334274021e-01
2.075675675675675791e+02 2.031893270756736647e-01
2.090090090090089632e+02 2.081684311760001183e-01
2.104504504504504609e+02 2.131469037349200957e-01
2.118918918918918735e+02 2.181181315064124049e-01
2.133333333333333144e+02 2.230754035570034211e-01
2.147747747747747553e+02 2.280117786685101899e-01
2.162162162162161962e+02 2.329199363731519756e-01
2.176576576576576372e+02 2.377919992009548955e-01
2.190990990990990781e+02 2.426193103432693066e-01
2.205405405405405190e+02 2.473921454872815839e-01
2.219819819819819884e+02 2.520993292439374645e-01
2.234234234234233725e+02 2.567277141966500253e-01
2.248648648648648702e+02 2.612614626085299485e-01
2.263063063063062827e+02 2.656810456968942136e-01
2.277477477477477237e+02 2.699618429083968096e-01
2.291891891891891646e+02 2.740721890722005449e-01
2.306306306306306055e+02 2.779707025249275043e-01
2.320720720720720465e+02 2.816027972128660739e-01
2.335135135135134874e+02 2.848965965228980601e-01
2.349549549549548999e+02 2.877593426264864473e-01
2.363963963963963977e+02 2.900772121956090577e-01
2.378378378378378386e+02 2.917238716511959540e-01
2.392792792792792795e+02 2.925831548208225330e-01
2.407207207207206920e+02 2.925831548208225330e-01
2.421621621621621330e+02 2.917238716511961205e-01
2.436036036036035739e+02 2.900772121956094463e-01
2.450450450450450433e+02 2.877593426264864473e-01
2.464864864864865126e+02 2.848965965228980601e-01
2.479279279279278967e+02 2.816027972128666290e-01
2.493693693693693660e+02 2.779707025249277819e-01
2.508108108108108070e+02 2.740721890722008225e-01
2.522522522522522195e+02 2.699618429083970872e-01
2.536936936936936888e+02 2.656810456968943801e-01
2.551351351351351298e+02 2.612614626085302816e-01
2.565765765765765991e+02 2.567277141966502474e-01
2.580180180180179832e+02 2.520993292439377420e-01
2.594594594594594241e+02 2.473921454872818060e-01
2.609009009009008651e+02 2.426193103432700282e-01
2.623423423423423060e+02 2.377919992009554784e-01
2.637837837837838038e+02 2.329199363731524197e-01
2.652252252252251878e+02 2.280117786685101899e-01
2.666666666666666288e+02 2.230754035570032268e-01
2.681081081081081265e+02 2.181181315064127657e-01
2.695495495495495106e+02 2.131469037349202345e-01
2.709909909909909516e+02 2.081684311760004236e-01
2.724324324324324493e+02 2.031893270756733871e-01
2.738738738738738903e+02 1.982162338334275409e-01
2.753153153153153312e+02 1.932559541966340222e-01
2.767567567567567153e+02 1.883155976767839079e-01
2.781981981981981562e+02 1.834027552423367069e-01
2.796396396396395971e+02 1.785257193859179636e-01
2.810810810810810381e+02 1.736937733522874727e-01
2.825225225225225358e+02 1.689175839736012652e-01
2.839639639639639768e+02 1.642097493254431884e-01
2.854054054054054177e+02 1.595855785997166987e-01
2.868468468468468018e+02 1.550642219747309369e-01
2.882882882882882427e+02 1.506703286776399087e-01
2.897297297297296836e+02 1.464364952042905010e-01
2.911711711711711814e+02 1.424068595535654125e-01
2.926126126126126223e+02 1.386422265682234201e-01
2.940540540540540064e+02 1.352268162628514070e-01
2.954954954954955042e+02 1.322754259573621916e-01
2.969369369369369451e+02 1.299362453824892683e-01
2.983783783783783292e+02 1.283785145983578069e-01
2.998198198198197701e+02 1.277526153621083294e-01
3.012612612612612679e+02 1.281300801243442644e-01
3.027027027027027088e+02 1.294669191183025203e-01
3.041441441441440929e+02 1.316267895682620148e-01
3.055855855855855339e+02 1.344402307600452984e-01
3.070270270270269748e+02 1.377517220962298505e-01
3.084684684684684157e+02 1.414380252188100207e-01
3.099099099099099135e+02 1.454078989855059068e-01
3.113513513513513544e+02 1.495953712481732367e-01
3.127927927927927954e+02 1.539526844249205217e-01
3.142342342342342363e+02 1.584447472690024838e-01
3.156756756756756204e+02 1.630451912726392227e-01
3.171171171171170613e+02 1.677336725914508331e-01
3.185585585585585591e+02 1.724940447370325314e-01
3.200000000000000000e+02 1.773131162424047835e-01
3.214414414414414409e+02 1.821797963042501023e-01
3.228828828828828250e+02 1.870844976201908594e-01
3.243243243243243228e+02 1.920187104801145683e-01
3.257657657657657637e+02 1.969746913956780809e-01
3.272072072072072046e+02 2.019452283084054722e-01
3.286486486486486456e+02 2.069234563642852742e-01
3.300900900900900865e+02 2.119027057738947228e-01
3.315315315315314706e+02 2.168763678901747260e-01
3.329729729729729684e+02 2.218377682345344382e-01
3.344144144144143524e+02 2.267800362926480628e-01
3.358558558558557934e+02 2.316959617111994385e-01
3.372972972972972912e+02 2.365778250606529742e-01
3.387387387387387321e+02 2.414171883817894937e-01
3.401801801801801730e+02 2.462046258659027764e-01
3.416216216216215571e+02 2.509293675023134274e-01
3.430630630630630549e+02 2.555788172792007873e-01
3.445045045045044390e+02 2.601378910886837370e-01
3.459459459459459367e+02 2.645880962543670778e-01
3.473873873873874345e+02 2.689062437957033813e-01
3.488288288288288186e+02 2.730626494023339901e-01
3.502702702702702027e+02 2.770186556261490241e-01
3.517117117117117004e+02 2.807233464033855874e-01
3.531531531531531414e+02 2.841095556860840921e-01
3.545945945945945255e+02 2.870899692831229144e-01
3.560360360360360232e+02 2.895556797609903366e-01
3.574774774774774642e+02 2.913819617115390170e-01
3.589189189189189051e+02 2.924471703887607243e-01
3.603603603603602892e+02 2.926650623970313281e-01
3.618018018018017870e+02 2.920163511334041284e-01
3.632432432432431710e+02 2.905567536430369024e-01
3.646846846846846688e+02 2.883947320892883415e-01
3.661261261261261097e+02 2.856568048542404425e-01
3.675675675675675507e+02 2.824612084099362153e-01
3.690090090090089916e+02 2.789061828105544594e-01
3.704504504504503757e+02 2.750685532080131557e-01
3.718918918918918735e+02 2.710068357249756921e-01
3.733333333333332575e+02 2.667653549543314018e-01
3.747747747747747553e+02 2.623779233064913452e-01
3.762162162162162531e+02 2.578707141004837333e-01
3.776576576576576372e+02 2.532643790190270972e-01
3.790990990990990781e+02 2.485755714020757012e-01
3.805405405405405190e+02 2.438180345539552041e-01
3.819819819819819600e+02 2.390033815134330053e-01
3.834234234234234009e+02 2.341416588693101264e-01
3.848648648648648418e+02 2.292417601481510636e-01
3.863063063063063396e+02 2.243117346544711566e-01
3.877477477477477237e+02 2.193590240042218587e-01
3.891891891891891078e+02 2.143906493700823424e-01
3.906306306306306055e+02 2.094133663767419051e-01
3.920720720720719896e+02 2.044338007481621144e-01
3.935135135135134874e+02 1.994585756413676525e-01
3.949549549549549283e+02 1.944944407855157820e-01
3.963963963963963693e+02 1.895484139815732660e-01
3.978378378378378102e+02 1.846279473186349107e-01
3.992792792792791943e+02 1.797411339841862576e-01
4.007207207207206920e+02 1.748969774733803995e-01
4.021621621621621898e+02 1.701057545067565790e-01
4.036036036036035739e+02 1.653795179484009170e-01
4.050450450450450717e+02 1.607328094566957688e-01
4.064864864864864558e+02 1.561836879051635707e-01
4.079279279279278967e+02 1.517552344911129447e-01
4.093693693693693376e+02 1.474777735542314172e-01
4.108108108108108354e+02 1.433921428261515085e-01
4.122522522522522195e+02 1.395544060730543601e-01
4.136936936936936604e+02 1.360422308196842511e-01
4.151351351351351582e+02 1.329622031719639719e-01
4.165765765765765423e+02 1.304544862607177891e-01
4.180180180180179264e+02 1.286855884199859523e-01
4.194594594594594241e+02 1.278159370580804199e-01
4.209009009009009219e+02 1.279420833479970321e-01
4.223423423423423060e+02 1.290491811334519290e-01
4.237837837837837469e+02 1.310189120375247762e-01
4.252252252252251878e+02 1.336846040755613474e-01
4.266666666666666288e+02 1.368844837655784075e-01
4.281081081081080129e+02 1.404867908803426602e-01
4.295495495495495106e+02 1.443928148488758667e-01
4.309909909909910084e+02 1.485309680895197937e-01
4.324324324324323925e+02 1.528495269325453598e-01
4.338738738738738903e+02 1.573106608909732307e-01
4.353153153153152743e+02 1.618861154226992061e-01
4.367567567567567153e+02 1.665542401991005894e-01
4.381981981981981562e+02 1.712979747349763771e-01
4.396396396396396540e+02 1.761034813992149728e-01
4.410810810810810381e+02 1.809592085044151033e-01
4.425225225225224790e+02 1.858552383416769982e-01
4.439639639639639768e+02 1.907828247038626246e-01
4.454054054054053609e+02 1.957340570325240281e-01
4.468468468468467449e+02 2.007016092965389353e-01
4.482882882882882427e+02 2.056785450929771164e-01
4.497297297297297405e+02 2.106581589264286958e-01
4.511711711711711246e+02 2.156338388618289637e-01
4.526126126126125655e+02 2.205989387875396945e-01
4.540540540540540064e+02 2.255466499622489629e-01
4.554954954954954474e+02 2.304698616407567235e-01
4.569369369369369451e+02 2.353609994374119552e-01
4.583783783783783292e+02 2.402118275402360115e-01
4.598198198198198270e+02 2.450131965568720094e-01
4.612612612612612111e+02 2.497547120059733228e-01
4.627027027027026520e+02 2.544242882756408974e-01
4.641441441441440929e+02 2.590075378852671473e-01
4.655855855855855339e+02 2.634869244889290196e-01
4.670270270270269748e+02 2.678405790898407135e-01
4.684684684684684157e+02 2.720406441122230068e-01
4.699099099099097998e+02 2.760509807632056112e-01
4.713513513513513544e+02 2.798240901776266054e-01
4.727927927927927954e+02 2.832972624516031379e-01
4.742342342342342363e+02 2.863885130983350735e-01
4.756756756756756772e+02 2.889941783697602129e-01
4.771171171171170613e+02 2.909923127986131508e-01
4.785585585585585591e+02 2.922578846573194999e-01
4.799999999999999432e+02 2.926924182299654453e-01
4.814414414414413841e+02 2.922578846573199440e-01
4.828828828828828250e+02 2.909923127986131508e-01
4.843243243243242659e+02 2.889941783697606570e-01
4.857657657657656500e+02 2.863885130983356286e-01
4.872072072072071478e+02 2.832972624516029714e-01
4.886486486486485319e+02 2.798240901776267719e-01
4.900900900900900865e+02 2.760509807632060553e-01
4.915315315315315274e+02 2.720406441122231733e-01
4.929729729729730252e+02 2.678405790898409355e-01
4.944144144144144093e+02 2.634869244889290751e-01
4.958558558558557934e+02 2.590075378852672028e-01
4.972972972972972912e+02 2.544242882756410085e-01
4.987387387387387321e+02 2.497547120059736836e-01
5.001801801801801162e+02 2.450131965568718706e-01
5.016216216216216139e+02 2.402118275402361502e-01
5.030630630630629980e+02 2.353609994374121772e-01
5.045045045045044390e+02 2.304698616407571676e-01
5.059459459459458799e+02 2.255466499622491849e-01
5.073873873873873777e+02 2.205989387875395003e-01
5.088288288288288754e+02 2.156338388618289081e-01
5.102702702702702595e+02 2.106581589264285570e-01
5.117117117117117004e+02 2.056785450929773384e-01
5.131531531531531982e+02 2.007016092965392962e-01
5.145945945945945823e+02 1.957340570325240836e-01
5.160360360360359664e+02 1.907828247038632075e-01
5.174774774774774642e+02 1.858552383416772202e-01
5.189189189189188482e+02 1.809592085044152421e-01
5.203603603603602323e+02 1.761034813992151948e-01
5.218018018018017301e+02 1.712979747349773207e-01
5.232432432432431142e+02 1.665542401991010335e-01
5.246846846846846120e+02 1.618861154226997334e-01
5.261261261261261097e+02 1.573106608909735915e-01
5.275675675675676075e+02 1.528495269325454986e-01
5.290090090090089916e+02 1.485309680895201545e-01
5.304504504504503757e+02 1.443928148488759500e-01
5.318918918918918735e+02 1.404867908803428822e-01
5.333333333333332575e+02 1.368844837655783242e-01
5.347747747747747553e+02 1.336846040755617637e-01
5.362162162162162531e+02 1.310189120375250815e-01
5.376576576576576372e+02 1.290491811334522065e-01
5.390990990990990213e+02 1.279420833479974762e-01
5.405405405405405190e+02 1.278159370580803367e-01
5.419819819819819031e+02 1.286855884199860356e-01
5.434234234234232872e+02 1.304544862607177336e-01
5.448648648648648987e+02 1.329622031719641939e-01
5.463063063063062827e+02 1.360422308196841124e-01
5.477477477477477805e+02 1.395544060730542768e-01
5.491891891891891646e+02 1.433921428261515085e-01
5.506306306306306624e+02 1.474777735542311397e-01
5.520720720720720465e+02 1.517552344911128615e-01
5.535135135135134306e+02 1.561836879051634874e-01
5.549549549549549283e+02 1.607328094566954635e-01
5.563963963963963124e+02 1.653795179484005562e-01
5.578378378378378102e+02 1.701057545067563015e-01
5.592792792792791943e+02 1.748969774733801219e-01
5.607207207207206920e+02 1.797411339841858968e-01
5.621621621621620761e+02 1.846279473186343834e-01
5.636036036036035739e+02 1.895484139815732105e-01
5.650450450450450717e+02 1.944944407855154211e-01
5.664864864864864558e+02 1.994585756413675137e-01
5.679279279279279535e+02 2.044338007481618924e-01
5.693693693693693376e+02 2.094133663767411835e-01
5.708108108108108354e+02 2.143906493700819815e-01
5.722522522522522195e+02 2.193590240042216366e-01
5.736936936936936036e+02 2.243117346544709345e-01
