Theta (degrees)	Normalized Energy
0.000000000000000000e+00 2.926924137002231419e-01
5.764611689351480939e-01 2.926224640455598047e-01
1.152922337870296188e+00 2.924136540176760501e-01
1.729383506805444393e+00 2.920690208762525275e-01
2.305844675740592375e+00 2.915933754273208334e-01
2.882305844675740580e+00 2.909929694345902984e-01
3.458767013610888785e+00 2.902751055158749316e-01
4.035228182546037878e+00 2.894477400683824198e-01
4.611689351481184751e+00 2.885191199586011335e-01
5.188150520416332512e+00 2.874974788805513271e-01
5.764611689351481161e+00 2.863908043669179948e-01
6.341072858286629810e+00 2.852066746507438411e-01
6.917534027221777571e+00 2.839521570960004127e-01
7.493995196156925331e+00 2.826337564122168855e-01
8.070456365092075757e+00 2.812574002836615850e-01
8.646917534027222629e+00 2.798284512092539811e-01
9.223378702962369502e+00 2.783517353159898344e-01
9.799839871897518151e+00 2.768315810421391743e-01
1.037630104083266502e+01 2.752718625343323344e-01
1.095276220976781545e+01 2.736760442138792548e-01
1.152922337870296232e+01 2.720472242139015950e-01
1.210568454763811097e+01 2.703881753044283243e-01
1.268214571657325962e+01 2.687013825665358069e-01
1.325860688550840827e+01 2.669890775110280168e-01
1.383506805444355514e+01 2.652532686172878185e-01
1.441152922337870379e+01 2.634957684385772492e-01
1.498799039231385066e+01 2.617182175155408630e-01
1.556445156124899931e+01 2.599221053851475949e-01
1.614091273018415151e+01 2.581087889857365258e-01
1.671737389911929483e+01 2.562795087526091309e-01
1.729383506805444526e+01 2.544354026811307401e-01
1.787029623698959213e+01 2.525775186110791881e-01
1.844675740592473900e+01 2.507068249605513000e-01
1.902321857485988943e+01 2.488242201122403130e-01
1.959967974379503630e+01 2.469305406306637474e-01
2.017614091273018673e+01 2.450265684665402233e-01
2.075260208166533005e+01 2.431130372843522958e-01
2.132906325060048047e+01 2.411906380312106302e-01
2.190552441953563090e+01 2.392600238493866882e-01
2.248198558847077777e+01 2.373218144211597103e-01
2.305844675740592464e+01 2.353765998227385636e-01
2.363490792634107507e+01 2.334249439537780801e-01
2.421136909527622194e+01 2.314673876002015795e-01
2.478783026421137237e+01 2.295044511805295340e-01
2.536429143314651924e+01 2.275366372194730369e-01
2.594075260208166256e+01 2.255644325870981015e-01
2.651721377101681654e+01 2.235883105372334645e-01
2.709367493995195986e+01 2.216087325748862802e-01
2.767013610888711028e+01 2.196261501791558490e-01
2.824659727782225715e+01 2.176410064054145888e-01
2.882305844675740758e+01 2.156537373882834452e-01
2.939951961569255445e+01 2.136647737651325984e-01
2.997598078462770133e+01 2.116745420384235910e-01
3.055244195356285175e+01 2.096834658941529039e-01
3.112890312249799862e+01 2.076919674929429971e-01
3.170536429143314550e+01 2.057004687499219830e-01
3.228182546036830303e+01 2.037093926194414595e-01
3.285828662930344990e+01 2.017191644009147800e-01
3.343474779823858967e+01 1.997302130825924782e-01
3.401120896717373654e+01 1.977429727409862337e-01
3.458767013610889052e+01 1.957578840149014066e-01
3.516413130504403739e+01 1.937753956747031436e-01
3.574059247397918426e+01 1.917959663095555600e-01
3.631705364291433114e+01 1.898200661580125848e-01
3.689351481184947801e+01 1.878481791105824361e-01
3.746997598078462488e+01 1.858808049168245990e-01
3.804643714971977886e+01 1.839184616343116363e-01
3.862289831865492573e+01 1.819616883625155002e-01
3.919935948759007260e+01 1.800110483115807125e-01
3.977582065652522658e+01 1.780671322642069510e-01
4.035228182546037345e+01 1.761305624987623830e-01
4.092874299439551322e+01 1.742019972536088812e-01
4.150520416333066009e+01 1.722821358267896397e-01
4.208166533226581407e+01 1.703717244221994442e-01
4.265812650120096094e+01 1.684715628735720394e-01
4.323458767013610782e+01 1.665825124017757120e-01
4.381104883907126180e+01 1.647055045895513548e-01
4.438751000800640867e+01 1.628415517918037903e-01
4.496397117694155554e+01 1.609917592395028185e-01
4.554043234587670241e+01 1.591573391419103811e-01
4.611689351481184929e+01 1.573396271456442008e-01
4.669335468374699616e+01 1.555401015700735301e-01
4.726981585268215014e+01 1.537604059058557404e-01
4.784627702161729701e+01 1.520023751347386043e-01
4.842273819055244388e+01 1.502680664991859483e-01
4.899919935948759786e+01 1.485597954109304508e-01
4.957566052842274473e+01 1.468801772226003000e-01
5.015212169735789161e+01 1.452321755704357731e-01
5.072858286629303848e+01 1.436191578878783237e-01
5.130504403522817825e+01 1.420449584265283116e-01
5.188150520416332512e+01 1.405139486092889245e-01
5.245796637309847199e+01 1.390311136477342946e-01
5.303442754203363307e+01 1.376021329041875463e-01
5.361088871096877284e+01 1.362334592513536613e-01
5.418734987990391971e+01 1.349323894532156176e-01
5.476381104883908080e+01 1.337071132103661297e-01
5.534027221777422056e+01 1.325667230756444048e-01
5.591673338670936744e+01 1.315211615757364005e-01
5.649319455564451431e+01 1.305810771066112375e-01
5.706965572457966118e+01 1.297575592889806950e-01
5.764611689351481516e+01 1.290617314297799745e-01
5.822257806244995493e+01 1.285041965836039024e-01
5.879903923138510891e+01 1.280943660197042810e-01
5.937550040032026288e+01 1.278397402086737522e-01
5.995196156925540265e+01 1.277452499780717121e-01
6.052842273819055663e+01 1.278127808606061011e-01
6.110488390712570350e+01 1.280409821534286841e-01
6.168134507606085037e+01 1.284254042103215587e-01
6.225780624499599725e+01 1.289589325175661272e-01
6.283426741393115122e+01 1.296324244727442010e-01
6.341072858286629099e+01 1.304354266373295435e-01
6.398718975180144497e+01 1.313568602041139954e-01
6.456365092073660605e+01 1.323855975863452994e-01
6.514011208967173161e+01 1.335108948232142656e-01
6.571657325860689980e+01 1.347226788309837109e-01
6.629303442754202536e+01 1.360117096292270678e-01
6.686949559647717933e+01 1.373696463584595240e-01
6.744595676541233331e+01 1.387890460329079811e-01
6.802241793434747308e+01 1.402633196224662426e-01
6.859887910328262706e+01 1.417866642342438255e-01
6.917534027221778103e+01 1.433539845918020417e-01
6.975180144115292080e+01 1.449608124368092221e-01
7.032826261008807478e+01 1.466032290632805213e-01
7.090472377902322876e+01 1.482777938150314223e-01
7.148118494795836853e+01 1.499814798119655235e-01
7.205764611689350829e+01 1.517116171984838613e-01
7.263410728582866227e+01 1.534658436424986283e-01
7.321056845476380204e+01 1.552420615162782846e-01
7.378702962369895602e+01 1.570384010613807835e-01
7.436349079263410999e+01 1.588531888117602209e-01
7.493995196156924976e+01 1.606849205777988454e-01
7.551641313050440374e+01 1.625322383516017988e-01
7.609287429943955772e+01 1.643939105634445452e-01
7.666933546837469748e+01 1.662688151908645329e-01
7.724579663730985146e+01 1.681559252900873269e-01
7.782225780624500544e+01 1.700542965815930729e-01
7.839871897518014521e+01 1.719630567766510798e-01
7.897518014411529919e+01 1.738813963794698936e-01
7.955164131305045316e+01 1.758085607406330297e-01
8.012810248198559293e+01 1.777438431724002454e-01
8.070456365092074691e+01 1.796865789659589929e-01
8.128102481985588668e+01 1.816361401755426930e-01
8.185748598879102644e+01 1.835919310551670791e-01
8.243394715772619463e+01 1.855533840512255950e-01
8.301040832666132019e+01 1.875199562687567545e-01
8.358686949559648838e+01 1.894911263414434943e-01
8.416333066453162814e+01 1.914663916455848214e-01
8.473979183346676791e+01 1.934452658068102626e-01
8.531625300240192189e+01 1.954272764554040309e-01
8.589271417133706166e+01 1.974119631920318585e-01
8.646917534027221564e+01 1.993988757305741877e-01
8.704563650920735540e+01 2.013875721888335191e-01
8.762209767814252359e+01 2.033776175012522447e-01
8.819855884707764915e+01 2.053685819304912896e-01
8.877502001601281734e+01 2.073600396569267312e-01
8.935148118494795710e+01 2.093515674268583426e-01
8.992794235388311108e+01 2.113427432415382612e-01
9.050440352281825085e+01 2.133331450700717558e-01
9.108086469175340483e+01 2.153223495698486922e-01
9.165732586068854459e+01 2.173099307984368844e-01
9.223378702962369857e+01 2.192954589008294375e-01
9.281024819855885255e+01 2.212784987555969640e-01
9.338670936749399232e+01 2.232586085628169847e-01
9.396317053642914630e+01 2.252353383556717492e-01
9.453963170536430027e+01 2.272082284162445509e-01
9.511609287429944004e+01 2.291768075743098876e-01
9.569255404323459402e+01 2.311405913657647027e-01
9.626901521216973379e+01 2.330990800246867112e-01
9.684547638110488776e+01 2.350517562798551952e-01
9.742193755004002753e+01 2.369980829227570085e-01
9.799839871897519572e+01 2.389375001095896400e-01
9.857485988791032128e+01 2.408694223544901036e-01
9.915132105684548947e+01 2.427932351649230991e-01
9.972778222578062923e+01 2.447082912628591178e-01
1.003042433947157832e+02 2.466139063267823728e-01
1.008807045636509230e+02 2.485093541795845573e-01
1.014571657325860770e+02 2.503938613358060450e-01
1.020336269015212167e+02 2.522666008082721789e-01
1.026100880704563565e+02 2.541266850587850512e-01
1.031865492393915105e+02 2.559731579599859863e-01
1.037630104083266502e+02 2.578049856156815478e-01
1.043394715772618184e+02 2.596210458649588770e-01
1.049159327461969440e+02 2.614201162713999937e-01
1.054923939151321122e+02 2.632008603733850260e-01
1.060688550840672661e+02 2.649618119459028476e-01
1.066453162530024059e+02 2.667013570004952427e-01
1.072217774219375457e+02 2.684177132311972858e-01
1.077982385908726997e+02 2.701089066057544286e-01
1.083746997598078394e+02 2.717727448108124277e-01
1.089511609287429934e+02 2.734067872988380499e-01
1.095276220976781616e+02 2.750083117701323521e-01
1.101040832666132872e+02 2.765742770793363503e-01
1.106805444355484411e+02 2.781012828148449745e-01
1.112570056044835951e+02 2.795855262047323708e-01
1.118334667734187349e+02 2.810227576075489675e-01
1.124099279423538889e+02 2.824082367122977555e-01
1.129863891112890286e+02 2.837366927596058352e-01
1.135628502802241826e+02 2.850022936461468759e-01
1.141393114491593224e+02 2.861986306724033646e-01
1.147157726180944906e+02 2.873187278143950474e-01
1.152922337870296303e+02 2.883550864299711525e-01
1.158686949559647701e+02 2.892997776671099586e-01
1.164451561248999099e+02 2.901445946264999409e-01
1.170216172938350780e+02 2.908812733964858399e-01
1.175980784627702178e+02 2.915017853138935355e-01
1.181745396317053718e+02 2.919986917037906693e-01
1.187510008006405258e+02 2.923655377879599282e-01
1.193274619695756655e+02 2.925972472959903481e-01
1.199039231385108053e+02 2.926904682917140232e-01
1.204803843074459593e+02 2.926438190208228707e-01
1.210568454763811133e+02 2.924579933589782632e-01
1.216333066453162672e+02 2.921357075579295026e-01
1.222097678142514070e+02 2.916814976035632667e-01
1.227862289831865326e+02 2.911014012920013494e-01
1.233626901521217007e+02 2.904025740609321726e-01
1.239391513210568547e+02 2.895928898914175154e-01
1.245156124899919945e+02 2.886805701466037544e-01
1.250920736589271627e+02 2.876738688464688387e-01
1.256685348278623024e+02 2.865808276925989051e-01
1.262449959967974280e+02 2.854091017149492648e-01
1.268214571657325820e+02 2.841658482073465830e-01
1.273979183346677502e+02 2.828576675155812237e-01
1.279743795036028899e+02 2.814905832545716580e-01
1.285508406725380439e+02 2.800700504790796797e-01
1.291273018414732121e+02 2.786009822181305107e-01
1.297037630104083235e+02 2.770877869201558430e-01
1.302802241793434632e+02 2.755344113495168390e-01
1.308566853482786314e+02 2.739443851468459923e-01
1.314331465172137996e+02 2.723208645714357279e-01
1.320096076861489394e+02 2.706666739107910225e-01
1.325860688550840507e+02 2.689843437272934068e-01
1.331625300240192189e+02 2.672761455771469619e-01
1.337389911929543587e+02 2.655441231392299817e-01
1.343154523618895269e+02 2.637901198777099498e-01
1.348919135308246666e+02 2.620158034683161552e-01
1.354683746997598348e+02 2.602226872705614702e-01
1.360448358686949462e+02 2.584121491459794306e-01
1.366212970376301143e+02 2.565854479188253157e-01
1.371977582065652541e+02 2.547437377596326047e-01
1.377742193755003939e+02 2.528880807494753302e-01
1.383506805444355621e+02 2.510194578575132840e-01
1.389271417133707018e+02 2.491387785388429754e-01
1.395036028823058416e+02 2.472468891351405074e-01
1.400800640512409814e+02 2.453445802378831919e-01
1.406565252201761496e+02 2.434325931533891929e-01
1.412329863891112893e+02 2.415116255906249454e-01
1.418094475580464575e+02 2.395823366766202389e-01
1.423859087269815973e+02 2.376453513903030168e-01
1.429623698959167371e+02 2.357012644933638434e-01
1.435388310648518768e+02 2.337506440262753227e-01
1.441152922337870166e+02 2.317940344285584764e-01
1.446917534027221848e+02 2.298319593346596357e-01
1.452682145716573245e+02 2.278649240902024531e-01
1.458446757405924927e+02 2.258934180277702430e-01
1.464211369095276041e+02 2.239179165366089186e-01
1.469975980784627723e+02 2.219388829566208698e-01
1.475740592473979120e+02 2.199567703236447735e-01
1.481505204163330518e+02 2.179720229902079309e-01
1.487269815852682200e+02 2.159850781436214451e-01
1.493034427542033598e+02 2.139963672414253726e-01
1.498799039231384995e+02 2.120063173826952641e-01
1.504563650920736393e+02 2.100153526326417885e-01
1.510328262610088075e+02 2.080238953171321126e-01
1.516092874299439472e+02 2.060323673033236380e-01
1.521857485988791154e+02 2.040411912824553475e-01
1.527622097678142268e+02 2.020507920710170602e-01
1.533386709367493950e+02 2.000615979470014294e-01
1.539151321056845347e+02 1.980740420387730183e-01
1.544915932746197029e+02 1.960885637852854413e-01
1.550680544435548427e+02 1.941056104879592403e-01
1.556445156124900109e+02 1.921256389765745309e-01
1.562209767814251222e+02 1.901491174140775009e-01
1.567974379503602904e+02 1.881765272683366408e-01
1.573738991192954302e+02 1.862083654827028367e-01
1.579503602882305984e+02 1.842451468818313842e-01
1.585268214571657381e+02 1.822874068548190896e-01
1.591032826261009063e+02 1.803357043643580016e-01
1.596797437950360177e+02 1.783906253386608742e-01
1.602562049639711859e+02 1.764527865124943529e-01
1.608326661329063256e+02 1.745228397951774368e-01
1.614091273018414938e+02 1.726014772571581868e-01
1.619855884707766336e+02 1.706894368432355091e-01
1.625620496397117734e+02 1.687875089401552897e-01
1.631385108086469131e+02 1.668965439497322734e-01
1.637149719775820529e+02 1.650174610465237335e-01
1.642914331465172211e+02 1.631512583321003129e-01
1.648678943154523893e+02 1.612990246368645186e-01
1.654443554843875290e+02 1.594619532658685390e-01
1.660208166533226404e+02 1.576413580376750390e-01
1.665972778222578086e+02 1.558386920251093599e-01
1.671737389911929768e+02 1.540555694731282066e-01
1.677502001601281165e+02 1.522937914399377646e-01
1.683266613290632563e+02 1.505553757785508540e-01
1.689031224979983961e+02 1.488425921390484630e-01
1.694795836669335358e+02 1.471580027125448942e-01
1.700560448358687040e+02 1.455045094326409272e-01
1.706325060048038438e+02 1.438854082608995166e-01
1.712089671737389835e+02 1.423044509510295319e-01
1.717854283426741233e+02 1.407659142242053130e-01
1.723618895116093199e+02 1.392746754697984646e-01
1.729383506805444313e+02 1.378362927415971162e-01
1.735148118494795710e+02 1.364570847373990925e-01
1.740912730184147108e+02 1.351442034016416549e-01
1.746677341873499074e+02 1.339056876049810330e-01
1.752441953562850472e+02 1.327504810689064396e-01
1.758206565252201869e+02 1.316883918284374733e-01
1.763971176941552983e+02 1.307299654174229331e-01
1.769735788630904949e+02 1.298862421822173097e-01
1.775500400320256347e+02 1.291683744805955381e-01
1.781265012009607744e+02 1.285870961709444926e-01
1.787029623698959142e+02 1.281520669677435331e-01
1.792794235388310824e+02 1.278711547085800149e-01
1.798558847077662222e+02 1.277497579494112079e-01
1.804323458767013619e+02 1.277902916453437510e-01
1.810088070456365017e+02 1.279919438119164476e-01
1.815852682145716699e+02 1.283507582649431045e-01
1.821617293835068097e+02 1.288600244231914993e-01
1.827381905524419778e+02 1.295108885351624328e-01
1.833146517213770892e+02 1.302930659943506431e-01
1.838911128903122290e+02 1.311955385864288226e-01
1.844675740592473971e+02 1.322071527677797231e-01
1.850440352281825369e+02 1.333170769428162206e-01
1.856204963971177051e+02 1.345151119096359427e-01
1.861969575660528164e+02 1.357918720276380387e-01
1.867734187349879846e+02 1.371388651880753595e-01
1.873498799039231244e+02 1.385485009213185958e-01
1.879263410728582926e+02 1.400140521266357851e-01
1.885028022417934608e+02 1.415295901803846068e-01
1.890792634107286005e+02 1.430899074910073343e-01
1.896557245796637119e+02 1.446904368067863933e-01
1.902321857485988801e+02 1.463271729784990371e-01
1.908086469175340198e+02 1.479966003412949149e-01
1.913851080864691880e+02 1.496956271954769935e-01
1.919615692554043278e+02 1.514215278087783223e-01
1.925380304243394676e+02 1.531718917409324310e-01
1.931144915932746073e+02 1.549445799573951899e-01
1.936909527622097755e+02 1.567376870474700701e-01
1.942674139311449153e+02 1.585495088207225511e-01
1.948438751000800551e+02 1.603785145770509346e-01
1.954203362690151948e+02 1.622233233999711144e-01
1.959967974379503914e+02 1.640826838910702523e-01
1.965732586068855028e+02 1.659554568353162063e-01
1.971497197758206426e+02 1.678406003559210213e-01
1.977261809447557823e+02 1.697371571806955415e-01
1.983026421136909789e+02 1.716442436980542829e-01
1.988791032826261187e+02 1.735610405298364800e-01
1.994555644515612585e+02 1.754867843902182256e-01
2.000320256204963698e+02 1.774207610358786436e-01
2.006084867894315664e+02 1.793622991429264790e-01
2.011849479583667062e+02 1.813107649716531600e-01
2.017614091273018460e+02 1.832655577016601145e-01
2.023378702962369857e+02 1.852261053378747302e-01
2.029143314651721539e+02 1.871918611030363166e-01
2.034907926341072937e+02 1.891623002448078461e-01
2.040672538030424334e+02 1.911369171961889435e-01
2.046437149719775732e+02 1.931152230366792732e-01
2.052201761409127130e+02 1.950967432089691922e-01
2.057966373098478812e+02 1.970810154520321877e-01
2.063730984787830209e+02 1.990675879165699214e-01
2.069495596477181607e+02 2.010560174329549255e-01
2.075260208166533005e+02 2.030458679052865034e-01
2.081024819855884687e+02 2.050367088079978195e-01
2.086789431545236368e+02 2.070281137637454971e-01
2.092554043234587766e+02 2.090196591831035844e-01
2.098318654923938880e+02 2.110109229479873449e-01
2.104083266613290562e+02 2.130014831217221516e-01
2.109847878302642243e+02 2.149909166693401152e-01
2.115612489991993641e+02 2.169787981720098791e-01
2.121377101681345323e+02 2.189646985195209117e-01
2.127141713370696721e+02 2.209481835644492576e-01
2.132906325060048118e+02 2.229288127210221904e-01
2.138670936749399516e+02 2.249061374907470878e-01
2.144435548438750914e+02 2.268796998955920907e-01
2.150200160128102596e+02 2.288490307978411353e-01
2.155964771817453993e+02 2.308136480836407711e-01
2.161729383506805391e+02 2.327730546847250892e-01
2.167493995196156789e+02 2.347267364097032627e-01
2.173258606885508470e+02 2.366741595526205555e-01
2.179023218574859868e+02 2.386147682421176641e-01
2.184787830264211266e+02 2.405479814893422552e-01
2.190552441953563232e+02 2.424731898866824276e-01
2.196317053642914630e+02 2.443897519022394105e-01
2.202081665332265743e+02 2.462969897066174807e-01
2.207846277021617141e+02 2.481941844588425039e-01
2.213610888710968823e+02 2.500805709669336463e-01
2.219375500400320504e+02 2.519553316255427888e-01
2.225140112089671902e+02 2.538175895180321273e-01
2.230904723779023016e+02 2.556664005531779638e-01
2.236669335468374697e+02 2.575007444872692286e-01
2.242433947157726379e+02 2.593195146607154555e-01
2.248198558847077777e+02 2.611215062546077825e-01
2.253963170536429175e+02 2.629054028474903104e-01
2.259727782225780572e+02 2.646697610269695411e-01
2.265492393915132254e+02 2.664129927865093173e-01
2.271257005604483652e+02 2.681333454178605469e-01
2.277021617293835050e+02 2.698288785988459670e-01
2.282786228983186447e+02 2.714974383819273029e-01
2.288550840672537845e+02 2.731366278221104560e-01
2.294315452361889811e+02 2.747437740591393007e-01
