Theta (degrees)	Normalized Energy
0.000000000000000000e+00 3.417829577216565107e-01
1.801801801801801717e-01 3.417887684541044413e-01
3.603603603603603434e-01 3.418061906320568055e-01
5.405405405405404595e-01 3.418351942746318817e-01
7.207207207207206867e-01 3.418757296699402315e-01
9.009009009009008029e-01 3.419277277546278748e-01
1.081081081081080919e+00 3.419911006357324590e-01
1.261261261261261035e+00 3.420657422457207275e-01
1.441441441441441373e+00 3.421515291194551223e-01
1.621621621621621712e+00 3.422483212800878083e-01
1.801801801801801606e+00 3.423559632194633773e-01
1.981981981981981944e+00 3.424742849576706827e-01
2.162162162162161838e+00 3.426031031657748582e-01
2.342342342342341954e+00 3.427422223356363373e-01
2.522522522522522070e+00 3.428914359808982182e-01
2.702702702702702631e+00 3.430505278538198422e-01
2.882882882882882747e+00 3.432192731634362004e-01
3.063063063063062419e+00 3.433974397816738078e-01
3.243243243243243423e+00 3.435847894252934687e-01
3.423423423423423095e+00 3.437810788029709297e-01
3.603603603603603212e+00 3.439860607183179986e-01
3.783783783783783328e+00 3.441994851211788720e-01
3.963963963963963888e+00 3.444211001010411000e-01
4.144144144144143560e+00 3.446506528178779338e-01
4.324324324324323676e+00 3.448878903670979379e-01
4.504504504504503792e+00 3.451325605765810933e-01
4.684684684684683909e+00 3.453844127348982274e-01
4.864864864864864913e+00 3.456431982508693102e-01
5.045045045045044141e+00 3.459086712454658707e-01
5.225225225225224257e+00 3.461805890778282269e-01
5.405405405405405261e+00 3.464587128077787348e-01
5.585585585585585378e+00 3.467428075976935475e-01
5.765765765765765494e+00 3.470326430569710130e-01
5.945945945945945610e+00 3.473279935326010204e-01
6.126126126126124838e+00 3.476286383495048593e-01
6.306306306306305842e+00 3.479343620044113572e-01
6.486486486486486847e+00 3.482449543170484940e-01
6.666666666666666075e+00 3.485602105423917241e-01
6.846846846846846191e+00 3.488799314476216940e-01
7.027027027027027195e+00 3.492039233573189794e-01
7.207207207207206423e+00 3.495319981702647016e-01
7.387387387387387427e+00 3.498639733510449656e-01
7.567567567567566655e+00 3.501996718994526137e-01
7.747747747747746772e+00 3.505389223004970467e-01
7.927927927927927776e+00 3.508815584576088775e-01
8.108108108108107004e+00 3.512274196114359981e-01
8.288288288288287120e+00 3.515763502464171464e-01
8.468468468468467236e+00 3.519281999871265443e-01
8.648648648648647352e+00 3.522828234861922758e-01
8.828828828828829245e+00 3.526400803054239863e-01
9.009009009009007585e+00 3.529998347915869750e-01
9.189189189189187701e+00 3.533619559481456784e-01
9.369369369369367817e+00 3.537263173041094166e-01
9.549549549549547933e+00 3.540927967810054144e-01
9.729729729729729826e+00 3.544612765588676662e-01
9.909909909909908166e+00 3.548316429420170226e-01
1.009009009009008828e+01 3.552037862253082379e-01
1.027027027027027017e+01 3.555776005614191271e-01
1.045045045045044851e+01 3.559529838296743853e-01
1.063063063063063041e+01 3.563298375068245094e-01
1.081081081081081052e+01 3.567080665401245465e-01
1.099099099099099064e+01 3.570875792230008283e-01
1.117117117117117076e+01 3.574682870735409468e-01
1.135135135135134909e+01 3.578501047159863835e-01
1.153153153153153099e+01 3.582329497653783390e-01
1.171171171171171110e+01 3.586167427154579035e-01
1.189189189189189122e+01 3.590014068298932881e-01
1.207207207207207311e+01 3.593868680368870194e-01
1.225225225225224968e+01 3.597730548271738660e-01
1.243243243243243157e+01 3.601598981554188783e-01
1.261261261261261168e+01 3.605473313449968908e-01
1.279279279279279180e+01 3.609352899961145167e-01
1.297297297297297369e+01 3.613237118972416617e-01
1.315315315315315381e+01 3.617125369397811707e-01
1.333333333333333215e+01 3.621017070359323631e-01
1.351351351351351227e+01 3.624911660396571977e-01
1.369369369369369238e+01 3.628808596706855072e-01
1.387387387387387427e+01 3.632707354414739798e-01
1.405405405405405439e+01 3.636607425870335697e-01
1.423423423423423273e+01 3.640508319975409579e-01
1.441441441441441285e+01 3.644409561536438025e-01
1.459459459459459296e+01 3.648310690643731258e-01
1.477477477477477485e+01 3.652211262075711895e-01
1.495495495495495497e+01 3.656110844727493148e-01
1.513513513513513331e+01 3.660009021062854973e-01
1.531531531531531520e+01 3.663905386588767188e-01
1.549549549549549354e+01 3.667799549351598576e-01
1.567567567567567544e+01 3.671691129454173197e-01
1.585585585585585555e+01 3.675579758592863455e-01
1.603603603603603744e+01 3.679465079613962741e-01
1.621621621621621401e+01 3.683346746088456136e-01
1.639639639639639412e+01 3.687224421904570226e-01
1.657657657657657424e+01 3.691097780877313217e-01
1.675675675675675791e+01 3.694966506374234849e-01
1.693693693693693447e+01 3.698830290956886535e-01
1.711711711711711814e+01 3.702688836037164033e-01
1.729729729729729470e+01 3.706541851547981437e-01
1.747747747747747482e+01 3.710389055627693611e-01
1.765765765765765849e+01 3.714230174317569855e-01
1.783783783783783861e+01 3.718064941271892465e-01
1.801801801801801517e+01 3.721893097480057921e-01
1.819819819819819884e+01 3.725714391000136683e-01
1.837837837837837540e+01 3.729528576703518006e-01
1.855855855855855907e+01 3.733335416029982534e-01
1.873873873873873563e+01 3.737134676752929541e-01
1.891891891891891930e+01 3.740926132754182620e-01
1.909909909909909587e+01 3.744709563808030217e-01
1.927927927927927598e+01 3.748484755374065780e-01
1.945945945945945965e+01 3.752251498398450069e-01
1.963963963963963977e+01 3.756009589123266434e-01
1.981981981981981633e+01 3.759758828903550509e-01
2.000000000000000000e+01 3.763499024031692897e-01
2.018018018018017656e+01 3.767229985568921746e-01
2.036036036036036023e+01 3.770951529183527717e-01
2.054054054054054035e+01 3.774663474995528234e-01
2.072072072072071691e+01 3.778365647427500695e-01
2.090090090090089703e+01 3.782057875061361485e-01
2.108108108108108070e+01 3.785739990500777141e-01
2.126126126126126081e+01 3.789411830238959555e-01
2.144144144144144093e+01 3.793073234531709748e-01
2.162162162162162105e+01 3.796724047275317759e-01
2.180180180180180116e+01 3.800364115889311445e-01
2.198198198198198128e+01 3.803993291203670579e-01
2.216216216216215784e+01 3.807611427350428013e-01
2.234234234234234151e+01 3.811218381659411958e-01
2.252252252252251807e+01 3.814814014558003952e-01
2.270270270270269819e+01 3.818398189474672133e-01
2.288288288288288186e+01 3.821970772746223766e-01
2.306306306306306197e+01 3.825531633528498343e-01
2.324324324324324209e+01 3.829080643710466858e-01
2.342342342342342221e+01 3.832617677831529623e-01
2.360360360360360232e+01 3.836142613001899404e-01
2.378378378378378244e+01 3.839655328825946068e-01
2.396396396396396256e+01 3.843155707328355097e-01
2.414414414414414622e+01 3.846643632883063879e-01
2.432432432432431924e+01 3.850118992144712093e-01
2.450450450450449935e+01 3.853581673982683364e-01
2.468468468468468302e+01 3.857031569417488370e-01
2.486486486486486314e+01 3.860468571559459994e-01
2.504504504504504325e+01 3.863892575549682795e-01
2.522522522522522337e+01 3.867303478502994163e-01
2.540540540540540349e+01 3.870701179453081009e-01
2.558558558558558360e+01 3.874085579299453297e-01
2.576576576576576372e+01 3.877456580756367677e-01
2.594594594594594739e+01 3.880814088303514708e-01
2.612612612612612040e+01 3.884158008138413609e-01
2.630630630630630762e+01 3.887488248130527291e-01
2.648648648648648418e+01 3.890804717776912836e-01
2.666666666666666430e+01 3.894107328159448489e-01
2.684684684684684441e+01 3.897395991903526147e-01
2.702702702702702453e+01 3.900670623138124959e-01
2.720720720720720465e+01 3.903931137457311018e-01
2.738738738738738476e+01 3.907177451882994368e-01
2.756756756756756488e+01 3.910409484828953341e-01
2.774774774774774855e+01 3.913627156066107338e-01
2.792792792792792156e+01 3.916830386688912591e-01
2.810810810810810878e+01 3.920019099082907021e-01
2.828828828828828534e+01 3.923193216893278712e-01
2.846846846846846546e+01 3.926352664994604558e-01
2.864864864864864558e+01 3.929497369461414924e-01
2.882882882882882569e+01 3.932627257539851318e-01
2.900900900900900581e+01 3.935742257620207241e-01
2.918918918918918592e+01 3.938842299210342235e-01
2.936936936936936249e+01 3.941927312909992431e-01
2.954954954954954971e+01 3.944997230385888787e-01
2.972972972972972983e+01 3.948051984347668020e-01
2.990990990990990994e+01 3.951091508524577911e-01
3.009009009009008651e+01 3.954115737642899808e-01
3.027027027027026662e+01 3.957124607404068906e-01
3.045045045045044674e+01 3.960118054463562243e-01
3.063063063063063041e+01 3.963096016410347922e-01
3.081081081081081408e+01 3.966058431747046531e-01
3.099099099099098709e+01 3.969005239870676549e-01
3.117117117117117076e+01 3.971936381054022580e-01
3.135135135135135087e+01 3.974851796427551487e-01
3.153153153153152743e+01 3.977751427961887520e-01
3.171171171171171110e+01 3.980635218450859769e-01
3.189189189189189122e+01 3.983503111494999249e-01
3.207207207207207489e+01 3.986355051485601653e-01
3.225225225225224790e+01 3.989190983589231965e-01
3.243243243243242802e+01 3.992010853732715914e-01
3.261261261261260813e+01 3.994814608588549421e-01
3.279279279279278825e+01 3.997602195560785998e-01
3.297297297297297547e+01 4.000373562771325497e-01
3.315315315315314848e+01 4.003128659046583104e-01
3.333333333333332860e+01 4.005867433904581332e-01
3.351351351351351582e+01 4.008589837542406165e-01
3.369369369369368883e+01 4.011295820824045677e-01
3.387387387387386894e+01 4.013985335268570598e-01
3.405405405405405617e+01 4.016658333038622408e-01
3.423423423423423628e+01 4.019314766929316107e-01
3.441441441441441640e+01 4.021954590357390003e-01
3.459459459459458941e+01 4.024577757350675800e-01
3.477477477477476953e+01 4.027184222537896208e-01
3.495495495495494964e+01 4.029773941138750093e-01
3.513513513513512976e+01 4.032346868954229113e-01
3.531531531531531698e+01 4.034902962357270195e-01
3.549549549549549710e+01 4.037442178283638383e-01
3.567567567567567721e+01 4.039964474223053381e-01
3.585585585585585022e+01 4.042469808210581994e-01
3.603603603603603034e+01 4.044958138818297022e-01
3.621621621621621046e+01 4.047429425147059945e-01
3.639639639639639768e+01 4.049883626818688853e-01
3.657657657657657779e+01 4.052320703968184112e-01
3.675675675675675080e+01 4.054740617236270994e-01
3.693693693693693803e+01 4.057143327762126606e-01
3.711711711711711814e+01 4.059528797176234494e-01
3.729729729729729115e+01 4.061896987593527908e-01
3.747747747747747127e+01 4.064247861606667955e-01
3.765765765765765849e+01 4.066581382279487733e-01
3.783783783783783861e+01 4.068897513140652400e-01
3.801801801801801162e+01 4.071196218177463022e-01
3.819819819819819173e+01 4.073477461829831392e-01
3.837837837837837185e+01 4.075741208984375863e-01
3.855855855855855197e+01 4.077987424968770314e-01
3.873873873873873919e+01 4.080216075546103660e-01
3.891891891891891930e+01 4.082427126909547455e-01
3.909909909909909942e+01 4.084620545676984071e-01
3.927927927927927954e+01 4.086796298885937428e-01
3.945945945945945255e+01 4.088954353988522583e-01
3.963963963963963266e+01 4.091094678846584065e-01
3.981981981981981988e+01 4.093217241726941902e-01
4.000000000000000000e+01 4.095322011296749776e-01
4.018018018018018012e+01 4.097408956618966425e-01
4.036036036036035313e+01 4.099478047148013005e-01
4.054054054054054035e+01 4.101529252725393815e-01
4.072072072072072046e+01 4.103562543575606791e-01
4.090090090090090058e+01 4.105577890302031796e-01
4.108108108108108070e+01 4.107575263882913275e-01
4.126126126126126081e+01 4.109554635667582723e-01
4.144144144144143382e+01 4.111515977372605657e-01
4.162162162162162105e+01 4.113459261078124540e-01
4.180180180180179406e+01 4.115384459224279423e-01
4.198198198198197417e+01 4.117291544607702414e-01
4.216216216216216139e+01 4.119180490378089310e-01
4.234234234234234151e+01 4.121051270034894465e-01
4.252252252252252163e+01 4.122903857424046747e-01
4.270270270270269464e+01 4.124738226734834812e-01
4.288288288288288186e+01 4.126554352496758504e-01
4.306306306306305487e+01 4.128352209576565124e-01
4.324324324324324209e+01 4.130131773175256260e-01
4.342342342342342931e+01 4.131893018825289476e-01
4.360360360360360232e+01 4.133635922387696171e-01
4.378378378378377533e+01 4.135360460049426479e-01
4.396396396396396256e+01 4.137066608320626449e-01
4.414414414414414267e+01 4.138754344032070098e-01
4.432432432432431568e+01 4.140423644332611453e-01
4.450450450450450290e+01 4.142074486686703194e-01
4.468468468468468302e+01 4.143706848872006354e-01
4.486486486486486314e+01 4.145320708976982793e-01
4.504504504504503615e+01 4.146916045398648665e-01
4.522522522522522337e+01 4.148492836840299014e-01
4.540540540540539638e+01 4.150051062309302319e-01
4.558558558558558360e+01 4.151590701115002724e-01
4.576576576576576372e+01 4.153111732866592853e-01
4.594594594594594383e+01 4.154614137471105972e-01
4.612612612612612395e+01 4.156097895131398712e-01
4.630630630630629696e+01 4.157562986344234268e-01
4.648648648648648418e+01 4.159009391898388364e-01
4.666666666666665719e+01 4.160437092872762976e-01
4.684684684684684441e+01 4.161846070634641070e-01
4.702702702702703164e+01 4.163236306837878042e-01
4.720720720720720465e+01 4.164607783421215847e-01
4.738738738738738476e+01 4.165960482606579363e-01
4.756756756756756488e+01 4.167294386897465452e-01
4.774774774774774500e+01 4.168609479077327040e-01
4.792792792792792511e+01 4.169905742208019905e-01
4.810810810810810523e+01 4.171183159628297221e-01
4.828828828828829245e+01 4.172441714952310754e-01
4.846846846846846546e+01 4.173681392068168128e-01
4.864864864864863847e+01 4.174902175136532279e-01
4.882882882882882569e+01 4.176104048589229789e-01
4.900900900900899870e+01 4.177286997127923618e-01
4.918918918918918592e+01 4.178451005722775835e-01
4.936936936936936604e+01 4.179596059611225267e-01
4.954954954954954616e+01 4.180722144296686316e-01
4.972972972972972627e+01 4.181829245547373786e-01
4.990990990990989928e+01 4.182917349395095519e-01
5.009009009009008651e+01 4.183986442134117190e-01
5.027027027027027373e+01 4.185036510320034320e-01
5.045045045045044674e+01 4.186067540768682038e-01
5.063063063063063396e+01 4.187079520555050394e-01
5.081081081081080697e+01 4.188072437012291260e-01
5.099099099099098709e+01 4.189046277730634760e-01
5.117117117117116720e+01 4.190001030556473882e-01
5.135135135135135442e+01 4.190936683591389156e-01
5.153153153153152743e+01 4.191853225191182752e-01
5.171171171171170755e+01 4.192750643965014734e-01
5.189189189189189477e+01 4.193628928774508213e-01
5.207207207207206778e+01 4.194488068732858399e-01
5.225225225225224079e+01 4.195328053204074314e-01
5.243243243243242802e+01 4.196148871802086178e-01
5.261261261261261524e+01 4.196950514389997111e-01
5.279279279279278825e+01 4.197732971079352060e-01
5.297297297297296836e+01 4.198496232229329550e-01
5.315315315315314848e+01 4.199240288446076663e-01
5.333333333333332860e+01 4.199965130581964079e-01
5.351351351351350161e+01 4.200670749734983778e-01
5.369369369369368883e+01 4.201357137248009632e-01
5.387387387387387605e+01 4.202024284708211765e-01
5.405405405405404906e+01 4.202672183946455919e-01
5.423423423423423628e+01 4.203300827036660636e-01
5.441441441441440929e+01 4.203910206295272123e-01
5.459459459459458941e+01 4.204500314280690820e-01
5.477477477477476953e+01 4.205071143792726840e-01
5.495495495495495675e+01 4.205622687872119791e-01
5.513513513513512976e+01 4.206154939799993109e-01
5.531531531531530987e+01 4.206667893097442157e-01
5.549549549549549710e+01 4.207161541525016868e-01
5.567567567567567011e+01 4.207635879082302077e-01
5.585585585585584312e+01 4.208090900007525059e-01
5.603603603603603034e+01 4.208526598777097560e-01
5.621621621621621756e+01 4.208942970105296610e-01
5.639639639639639057e+01 4.209340008943813771e-01
5.657657657657657069e+01 4.209717710481493125e-01
5.675675675675675080e+01 4.210076070143923266e-01
5.693693693693693092e+01 4.210415083593185837e-01
5.711711711711711814e+01 4.210734746727486932e-01
5.729729729729729115e+01 4.211035055680956152e-01
5.747747747747747837e+01 4.211316006823298541e-01
5.765765765765765138e+01 4.211577596759602526e-01
5.783783783783783150e+01 4.211819822330091223e-01
5.801801801801801162e+01 4.212042680609898726e-01
5.819819819819819173e+01 4.212246168908896915e-01
5.837837837837837185e+01 4.212430284771457867e-01
5.855855855855855197e+01 4.212595025976359486e-01
5.873873873873872498e+01 4.212740390536581780e-01
5.891891891891891930e+01 4.212866376699175852e-01
5.909909909909909942e+01 4.212972982945179523e-01
5.927927927927927954e+01 4.213060207989478556e-01
5.945945945945945965e+01 4.213128050780738376e-01
5.963963963963963266e+01 4.213176510501329686e-01
5.981981981981981988e+01 4.213205586567264627e-01
5.999999999999999289e+01 4.213215278628177907e-01
6.018018018018017301e+01 4.213205586567267957e-01
6.036036036036035313e+01 4.213176510501329686e-01
6.054054054054053324e+01 4.213128050780741152e-01
6.072072072072070625e+01 4.213060207989477446e-01
6.090090090090089348e+01 4.212972982945175082e-01
6.108108108108106649e+01 4.212866376699171411e-01
6.126126126126126081e+01 4.212740390536574564e-01
6.144144144144144093e+01 4.212595025976359486e-01
6.162162162162162815e+01 4.212430284771459532e-01
6.180180180180180116e+01 4.212246168908891364e-01
6.198198198198197417e+01 4.212042680609901502e-01
6.216216216216216139e+01 4.211819822330085117e-01
6.234234234234234151e+01 4.211577596759599751e-01
6.252252252252251452e+01 4.211316006823292990e-01
6.270270270270270174e+01 4.211035055680953376e-01
6.288288288288287475e+01 4.210734746727494149e-01
6.306306306306305487e+01 4.210415083593188612e-01
6.324324324324323499e+01 4.210076070143927707e-01
6.342342342342342221e+01 4.209717710481493125e-01
6.360360360360360943e+01 4.209340008943815437e-01
6.378378378378378244e+01 4.208942970105302162e-01
6.396396396396396256e+01 4.208526598777103112e-01
6.414414414414414978e+01 4.208090900007522284e-01
6.432432432432432279e+01 4.207635879082302077e-01
6.450450450450449580e+01 4.207161541525020199e-01
6.468468468468468302e+01 4.206667893097449373e-01
6.486486486486485603e+01 4.206154939799995884e-01
6.504504504504502904e+01 4.205622687872121457e-01
6.522522522522521626e+01 4.205071143792732391e-01
6.540540540540538927e+01 4.204500314280693596e-01
6.558558558558557650e+01 4.203910206295276009e-01
6.576576576576576372e+01 4.203300827036665077e-01
6.594594594594595094e+01 4.202672183946453144e-01
6.612612612612612395e+01 4.202024284708208990e-01
6.630630630630629696e+01 4.201357137248005191e-01
6.648648648648648418e+01 4.200670749734981002e-01
6.666666666666665719e+01 4.199965130581966855e-01
6.684684684684684441e+01 4.199240288446066671e-01
6.702702702702703164e+01 4.198496232229327885e-01
6.720720720720720465e+01 4.197732971079354836e-01
6.738738738738737766e+01 4.196950514389992670e-01
6.756756756756756488e+01 4.196148871802082847e-01
6.774774774774773789e+01 4.195328053204074314e-01
6.792792792792791090e+01 4.194488068732862840e-01
6.810810810810811233e+01 4.193628928774502662e-01
6.828828828828828534e+01 4.192750643965010293e-01
6.846846846846847257e+01 4.191853225191182752e-01
6.864864864864864558e+01 4.190936683591385825e-01
6.882882882882883280e+01 4.190001030556471107e-01
6.900900900900900581e+01 4.189046277730629209e-01
6.918918918918917882e+01 4.188072437012289595e-01
6.936936936936936604e+01 4.187079520555053724e-01
6.954954954954953905e+01 4.186067540768683148e-01
6.972972972972972627e+01 4.185036510320034320e-01
6.990990990990989928e+01 4.183986442134114414e-01
7.009009009009008651e+01 4.182917349395091078e-01
7.027027027027025952e+01 4.181829245547369345e-01
7.045045045045044674e+01 4.180722144296686316e-01
7.063063063063063396e+01 4.179596059611225267e-01
7.081081081081080697e+01 4.178451005722780276e-01
7.099099099099099419e+01 4.177286997127923618e-01
7.117117117117116720e+01 4.176104048589237006e-01
7.135135135135135442e+01 4.174902175136532279e-01
7.153153153153152743e+01 4.173681392068167018e-01
7.171171171171170045e+01 4.172441714952310754e-01
