Theta (degrees)	Normalized Energy
0.000000000000000000e+00 9.992569462981906181e-01
1.439999999999999891e-01 9.992569567779794326e-01
2.879999999999999782e-01 9.992569882167616768e-01
4.319999999999999951e-01 9.992570406127919691e-01
5.759999999999999565e-01 9.992571139631604149e-01
7.199999999999998623e-01 9.992572082637926068e-01
8.639999999999999902e-01 9.992573235094511785e-01
1.008000000000000007e+00 9.992574596937335851e-01
1.151999999999999913e+00 9.992576168090780975e-01
1.296000000000000041e+00 9.992577948467554760e-01
1.439999999999999725e+00 9.992579937968775194e-01
1.584000000000000075e+00 9.992582136483931787e-01
1.727999999999999980e+00 9.992584543890908888e-01
1.872000000000000108e+00 9.992587160055973472e-01
2.016000000000000014e+00 9.992589984833807337e-01
2.160000000000000142e+00 9.992593018067493782e-01
2.303999999999999826e+00 9.992596259588540919e-01
2.447999999999999954e+00 9.992599709216875015e-01
2.592000000000000082e+00 9.992603366760859362e-01
2.736000000000000210e+00 9.992607232017295393e-01
2.879999999999999449e+00 9.992611304771461533e-01
3.024000000000000021e+00 9.992615584797084338e-01
3.168000000000000149e+00 9.992620071856376240e-01
3.311999999999999833e+00 9.992624765700032219e-01
3.455999999999999961e+00 9.992629666067255334e-01
3.600000000000000533e+00 9.992634772685780042e-01
3.744000000000000217e+00 9.992640085271843331e-01
3.888000000000000345e+00 9.992645603530249110e-01
4.032000000000000028e+00 9.992651327154363772e-01
4.176000000000000156e+00 9.992657255826110640e-01
4.320000000000000284e+00 9.992663389216029923e-01
4.464000000000000412e+00 9.992669726983253176e-01
4.607999999999999652e+00 9.992676268775547710e-01
4.751999999999999780e+00 9.992683014229333249e-01
4.895999999999999908e+00 9.992689962969686368e-01
5.040000000000000036e+00 9.992697114610364917e-01
5.184000000000000163e+00 9.992704468753835778e-01
5.328000000000000291e+00 9.992712024991289299e-01
5.472000000000000419e+00 9.992719782902674819e-01
5.616000000000000547e+00 9.992727742056680684e-01
5.759999999999998899e+00 9.992735902010813076e-01
5.903999999999999915e+00 9.992744262311372694e-01
6.048000000000000043e+00 9.992752822493512488e-01
6.192000000000000171e+00 9.992761582081228777e-01
6.336000000000000298e+00 9.992770540587412320e-01
6.479999999999999538e+00 9.992779697513869408e-01
6.623999999999999666e+00 9.992789052351328527e-01
6.767999999999999794e+00 9.992798604579503641e-01
6.911999999999999922e+00 9.992808353667058663e-01
7.056000000000000050e+00 9.992818299071720700e-01
7.200000000000001066e+00 9.992828440240237864e-01
7.344000000000000306e+00 9.992838776608415907e-01
7.488000000000000433e+00 9.992849307601204822e-01
7.632000000000000561e+00 9.992860032632663314e-01
7.776000000000000689e+00 9.992870951106015420e-01
7.920000000000000817e+00 9.992882062413664945e-01
8.064000000000000057e+00 9.992893365937276506e-01
8.208000000000000185e+00 9.992904861047745557e-01
8.352000000000000313e+00 9.992916547105270553e-01
8.496000000000000441e+00 9.992928423459370713e-01
8.640000000000000568e+00 9.992940489448915997e-01
8.784000000000000696e+00 9.992952744402179288e-01
8.928000000000000824e+00 9.992965187636863034e-01
9.071999999999999176e+00 9.992977818460131445e-01
9.215999999999999304e+00 9.992990636168636032e-01
9.359999999999999432e+00 9.993003640048573333e-01
9.503999999999999559e+00 9.993016829375717114e-01
9.647999999999999687e+00 9.993030203415435020e-01
9.791999999999999815e+00 9.993043761422777393e-01
9.935999999999999943e+00 9.993057502642436196e-01
1.008000000000000007e+01 9.993071426308872685e-01
1.022400000000000020e+01 9.993085531646295205e-01
1.036800000000000033e+01 9.993099817868714707e-01
1.051200000000000045e+01 9.993114284180009133e-01
1.065600000000000058e+01 9.993128929773938962e-01
1.080000000000000071e+01 9.993143753834198284e-01
1.094400000000000084e+01 9.993158755534442550e-01
1.108800000000000097e+01 9.993173934038370732e-01
1.123200000000000109e+01 9.993189288499737533e-01
1.137599999999999767e+01 9.993204818062382255e-01
1.151999999999999780e+01 9.993220521860333161e-01
1.166399999999999970e+01 9.993236399017784155e-01
1.180799999999999983e+01 9.993252448649194708e-01
1.195199999999999996e+01 9.993268669859298736e-01
1.209600000000000009e+01 9.993285061743174547e-01
1.224000000000000021e+01 9.993301623386284804e-01
1.238400000000000034e+01 9.993318353864517611e-01
1.252800000000000047e+01 9.993335252244257561e-01
1.267200000000000060e+01 9.993352317582396838e-01
1.281600000000000072e+01 9.993369548926436252e-01
1.295999999999999908e+01 9.993386945314474135e-01
1.310399999999999920e+01 9.993404505775318469e-01
1.324799999999999933e+01 9.993422229328499107e-01
1.339199999999999946e+01 9.993440114984316613e-01
1.353599999999999959e+01 9.993458161743919987e-01
1.367999999999999972e+01 9.993476368599356618e-01
1.382399999999999984e+01 9.993494734533586721e-01
1.396799999999999997e+01 9.993513258520596576e-01
1.411200000000000010e+01 9.993531939525397423e-01
1.425600000000000023e+01 9.993550776504130928e-01
1.440000000000000213e+01 9.993569768404075848e-01
1.454400000000000048e+01 9.993588914163743508e-01
1.468800000000000061e+01 9.993608212712891126e-01
1.483200000000000074e+01 9.993627662972632830e-01
1.497600000000000087e+01 9.993647263855457430e-01
1.512000000000000099e+01 9.993667014265290582e-01
1.526400000000000112e+01 9.993686913097574731e-01
1.540800000000000125e+01 9.993706959239296861e-01
1.555200000000000138e+01 9.993727151569072875e-01
1.569600000000000151e+01 9.993747488957192004e-01
1.584000000000000163e+01 9.993767970265688971e-01
1.598400000000000176e+01 9.993788594348391729e-01
1.612800000000000011e+01 9.993809360050986967e-01
1.627200000000000202e+01 9.993830266211103375e-01
1.641600000000000037e+01 9.993851311658321634e-01
1.656000000000000227e+01 9.993872495214295437e-01
1.670400000000000063e+01 9.993893815692777016e-01
1.684800000000000253e+01 9.993915271899692643e-01
1.699200000000000088e+01 9.993936862633218121e-01
1.713599999999999923e+01 9.993958586683791001e-01
1.728000000000000114e+01 9.993980442834258238e-01
1.742399999999999949e+01 9.994002429859881742e-01
1.756800000000000139e+01 9.994024546528416098e-01
1.771199999999999974e+01 9.994046791600177393e-01
1.785600000000000165e+01 9.994069163828119828e-01
1.800000000000000000e+01 9.994091661957886785e-01
1.814399999999999835e+01 9.994114284727879660e-01
1.828800000000000026e+01 9.994137030869348903e-01
1.843199999999999861e+01 9.994159899106429545e-01
1.857600000000000051e+01 9.994182888156212252e-01
1.871999999999999886e+01 9.994205996728852126e-01
1.886400000000000077e+01 9.994229223527593131e-01
1.900799999999999912e+01 9.994252567248866903e-01
1.915199999999999747e+01 9.994276026582332717e-01
1.929599999999999937e+01 9.994299600210991841e-01
1.943999999999999773e+01 9.994323286811206408e-01
1.958399999999999963e+01 9.994347085052825985e-01
1.972799999999999798e+01 9.994370993599209774e-01
1.987199999999999989e+01 9.994395011107333193e-01
2.001599999999999824e+01 9.994419136227832290e-01
2.016000000000000014e+01 9.994443367605121420e-01
2.030399999999999849e+01 9.994467703877413234e-01
2.044800000000000040e+01 9.994492143676824147e-01
2.059199999999999875e+01 9.994516685629443176e-01
2.073600000000000065e+01 9.994541328355402987e-01
2.087999999999999901e+01 9.994566070468970942e-01
2.102400000000000091e+01 9.994590910578580178e-01
2.116799999999999926e+01 9.994615847286966170e-01
2.131200000000000117e+01 9.994640879191197813e-01
2.145599999999999952e+01 9.994666004882752919e-01
2.160000000000000142e+01 9.994691222947643672e-01
2.174399999999999977e+01 9.994716531966443274e-01
2.188800000000000168e+01 9.994741930514381423e-01
2.203200000000000003e+01 9.994767417161403156e-01
2.217600000000000193e+01 9.994792990472306515e-01
2.232000000000000028e+01 9.994818649006744771e-01
2.246400000000000219e+01 9.994844391319342991e-01
2.260799999999999699e+01 9.994870215959791304e-01
2.275199999999999534e+01 9.994896121472884865e-01
2.289599999999999724e+01 9.994922106398652639e-01
2.303999999999999559e+01 9.994948169272391825e-01
2.318400000000000105e+01 9.994974308624768877e-01
2.332799999999999940e+01 9.995000522981901669e-01
2.347200000000000131e+01 9.995026810865439426e-01
2.361599999999999966e+01 9.995053170792638220e-01
2.376000000000000156e+01 9.995079601276445347e-01
2.390399999999999991e+01 9.995106100825592588e-01
2.404800000000000182e+01 9.995132667944656157e-01
2.419200000000000017e+01 9.995159301134156626e-01
2.433600000000000207e+01 9.995185998890634416e-01
2.448000000000000043e+01 9.995212759706736394e-01
2.462400000000000233e+01 9.995239582071293594e-01
2.476800000000000068e+01 9.995266464469420020e-01
2.491200000000000259e+01 9.995293405382571494e-01
2.505600000000000094e+01 9.995320403288650013e-01
2.520000000000000284e+01 9.995347456662071473e-01
2.534400000000000119e+01 9.995374563973885573e-01
2.548800000000000310e+01 9.995401723691803575e-01
2.563200000000000145e+01 9.995428934280345956e-01
2.577600000000000335e+01 9.995456194200862399e-01
2.591999999999999815e+01 9.995483501911692770e-01
2.606400000000000006e+01 9.995510855868176003e-01
2.620799999999999841e+01 9.995538254522797761e-01
2.635199999999999676e+01 9.995565696325233729e-01
2.649599999999999866e+01 9.995593179722462862e-01
2.663999999999999702e+01 9.995620703158839548e-01
2.678399999999999892e+01 9.995648265076193528e-01
2.692799999999999727e+01 9.995675863913899839e-01
2.707199999999999918e+01 9.995703498108983176e-01
2.721599999999999753e+01 9.995731166096196718e-01
2.735999999999999943e+01 9.995758866308099844e-01
2.750399999999999778e+01 9.995786597175178034e-01
2.764799999999999969e+01 9.995814357125885063e-01
2.779199999999999804e+01 9.995842144586776223e-01
2.793599999999999994e+01 9.995869957982559395e-01
2.807999999999999829e+01 9.995897795736218283e-01
2.822400000000000020e+01 9.995925656269070148e-01
2.836799999999999855e+01 9.995953538000866834e-01
2.851200000000000045e+01 9.995981439349899134e-01
2.865600000000000591e+01 9.996009358733056738e-01
2.880000000000000426e+01 9.996037294565934817e-01
2.894400000000000617e+01 9.996065245262931720e-01
2.908800000000000097e+01 9.996093209237311150e-01
2.923199999999999932e+01 9.996121184901322065e-01
2.937600000000000122e+01 9.996149170666261963e-01
2.951999999999999957e+01 9.996177164942602333e-01
2.966400000000000148e+01 9.996205166140026410e-01
2.980799999999999983e+01 9.996233172667570166e-01
2.995200000000000173e+01 9.996261182933685596e-01
3.009600000000000009e+01 9.996289195346331757e-01
3.024000000000000199e+01 9.996317208313081348e-01
3.038400000000000034e+01 9.996345220241191765e-01
3.052800000000000225e+01 9.996373229537690586e-01
3.067200000000000060e+01 9.996401234609511022e-01
3.081600000000000250e+01 9.996429233863530772e-01
3.096000000000000085e+01 9.996457225706681937e-01
3.110400000000000276e+01 9.996485208546043166e-01
3.124800000000000111e+01 9.996513180788958453e-01
3.139200000000000301e+01 9.996541140843046014e-01
3.153600000000000136e+01 9.996569087116388141e-01
3.168000000000000327e+01 9.996597018017570058e-01
3.182400000000000162e+01 9.996624931955763183e-01
3.196800000000000352e+01 9.996652827340839487e-01
3.211200000000000188e+01 9.996680702583465861e-01
3.225600000000000023e+01 9.996708556095160736e-01
3.240000000000000568e+01 9.996736386288427312e-01
3.254400000000000404e+01 9.996764191576824610e-01
3.268800000000000239e+01 9.996791970375042968e-01
3.283200000000000074e+01 9.996819721099030609e-01
3.297599999999999909e+01 9.996847442166071351e-01
3.312000000000000455e+01 9.996875131994844565e-01
3.326400000000000290e+01 9.996902789005559509e-01
3.340800000000000125e+01 9.996930411620016388e-01
3.355199999999999960e+01 9.996957998261746248e-01
3.369600000000000506e+01 9.996985547356023183e-01
3.383999999999999631e+01 9.997013057330019770e-01
3.398400000000000176e+01 9.997040526612871458e-01
3.412800000000000011e+01 9.997067953635772053e-01
3.427199999999999847e+01 9.997095336832074741e-01
3.441599999999999682e+01 9.997122674637347606e-01
3.456000000000000227e+01 9.997149965489511292e-01
3.470400000000000063e+01 9.997177207828912282e-01
3.484799999999999898e+01 9.997204400098389510e-01
3.499199999999999733e+01 9.997231540743402034e-01
3.513600000000000279e+01 9.997258628212080112e-01
3.528000000000000114e+01 9.997285660955361752e-01
3.542399999999999949e+01 9.997312637427049342e-01
3.556799999999999784e+01 9.997339556083891798e-01
3.571200000000000330e+01 9.997366415385727789e-01
3.585600000000000165e+01 9.997393213795486844e-01
3.600000000000000000e+01 9.997419949779386972e-01
3.614399999999999835e+01 9.997446621806923561e-01
3.628799999999999670e+01 9.997473228351032581e-01
3.643200000000000216e+01 9.997499767888134992e-01
3.657600000000000051e+01 9.997526238898244433e-01
3.671999999999999886e+01 9.997552639865060486e-01
3.686399999999999721e+01 9.997578969276046390e-01
3.700800000000000267e+01 9.997605225622508973e-01
3.715200000000000102e+01 9.997631407399720782e-01
3.729599999999999937e+01 9.997657513106972260e-01
3.743999999999999773e+01 9.997683541247680550e-01
3.758400000000000318e+01 9.997709490329480531e-01
3.772800000000000153e+01 9.997735358864281441e-01
3.787199999999999989e+01 9.997761145368397884e-01
3.801599999999999824e+01 9.997786848362605339e-01
3.816000000000000369e+01 9.997812466372236750e-01
3.830399999999999494e+01 9.997837997927276898e-01
3.844800000000000040e+01 9.997863441562439002e-01
3.859199999999999875e+01 9.997888795817269081e-01
3.873599999999999710e+01 9.997914059236184814e-01
3.887999999999999545e+01 9.997939230368622088e-01
3.902400000000000091e+01 9.997964307769091619e-01
3.916799999999999926e+01 9.997989289997247786e-01
3.931199999999999761e+01 9.998014175618016308e-01
3.945599999999999596e+01 9.998038963201646423e-01
3.959999999999999432e+01 9.998063651323793044e-01
3.974399999999999977e+01 9.998088238565621122e-01
3.988799999999999812e+01 9.998112723513887801e-01
4.003199999999999648e+01 9.998137104761005700e-01
4.017599999999999483e+01 9.998161380905141726e-01
4.032000000000000028e+01 9.998185550550321432e-01
4.046399999999999864e+01 9.998209612306458993e-01
4.060799999999999699e+01 9.998233564789489325e-01
4.075199999999999534e+01 9.998257406621430254e-01
4.089600000000000080e+01 9.998281136430452465e-01
4.103999999999999915e+01 9.998304752850987187e-01
4.118399999999999750e+01 9.998328254523797254e-01
4.132799999999999585e+01 9.998351640096043713e-01
4.147200000000000131e+01 9.998374908221389079e-01
4.161599999999999966e+01 9.998398057560063945e-01
4.175999999999999801e+01 9.998421086778951361e-01
4.190399999999999636e+01 9.998443994551668990e-01
4.204800000000000182e+01 9.998466779558627948e-01
4.219200000000000017e+01 9.998489440487154933e-01
4.233599999999999852e+01 9.998511976031529969e-01
4.247999999999999687e+01 9.998534384893076332e-01
4.262400000000000233e+01 9.998556665780246044e-01
4.276800000000000068e+01 9.998578817408699804e-01
4.291199999999999903e+01 9.998600838501366939e-01
4.305599999999999739e+01 9.998622727788533116e-01
4.320000000000000284e+01 9.998644484007925826e-01
4.334400000000000119e+01 9.998666105904766566e-01
4.348799999999999955e+01 9.998687592231856325e-01
4.363199999999999790e+01 9.998708941749683277e-01
4.377600000000000335e+01 9.998730153226439432e-01
4.392000000000000171e+01 9.998751225438125001e-01
4.406400000000000006e+01 9.998772157168630548e-01
4.420799999999999841e+01 9.998792947209799165e-01
4.435200000000000387e+01 9.998813594361495305e-01
4.449600000000000222e+01 9.998834097431689161e-01
4.464000000000000057e+01 9.998854455236513283e-01
4.478399999999999892e+01 9.998874666600354733e-01
4.492800000000000438e+01 9.998894730355902816e-01
4.507200000000000273e+01 9.998914645344221253e-01
4.521599999999999397e+01 9.998934410414855867e-01
4.535999999999999233e+01 9.998954024425857900e-01
4.550399999999999068e+01 9.998973486243868392e-01
4.564799999999998903e+01 9.998992794744192558e-01
4.579199999999999449e+01 9.999011948810874184e-01
4.593599999999999284e+01 9.999030947336742248e-01
4.607999999999999119e+01 9.999049789223496409e-01
4.622400000000000375e+01 9.999068473381766964e-01
4.636800000000000210e+01 9.999086998731164799e-01
4.651200000000000045e+01 9.999105364200397972e-01
4.665599999999999881e+01 9.999123568727266154e-01
4.680000000000000426e+01 9.999141611258778317e-01
4.694400000000000261e+01 9.999159490751200474e-01
4.708800000000000097e+01 9.999177206170115628e-01
4.723199999999999932e+01 9.999194756490474845e-01
4.737600000000000477e+01 9.999212140696700502e-01
4.752000000000000313e+01 9.999229357782705163e-01
4.766400000000000148e+01 9.999246406751957084e-01
4.780799999999999983e+01 9.999263286617589008e-01
4.795200000000000529e+01 9.999279996402380410e-01
4.809600000000000364e+01 9.999296535138898490e-01
4.824000000000000199e+01 9.999312901869481518e-01
4.838400000000000034e+01 9.999329095646353194e-01
4.852800000000000580e+01 9.999345115531668160e-01
4.867200000000000415e+01 9.999360960597538650e-01
4.881600000000000250e+01 9.999376629926127746e-01
4.896000000000000085e+01 9.999392122609689348e-01
4.910400000000000631e+01 9.999407437750639227e-01
4.924800000000000466e+01 9.999422574461570568e-01
4.939200000000000301e+01 9.999437531865360551e-01
4.953600000000000136e+01 9.999452309095175906e-01
4.968000000000000682e+01 9.999466905294569496e-01
4.982400000000000517e+01 9.999481319617489206e-01
4.996800000000000352e+01 9.999495551228380075e-01
5.011200000000000188e+01 9.999509599302175422e-01
5.025600000000000733e+01 9.999523463024405645e-01
5.040000000000000568e+01 9.999537141591204881e-01
5.054400000000000404e+01 9.999550634209387612e-01
5.068800000000000239e+01 9.999563940096474202e-01
5.083200000000000784e+01 9.999577058480773051e-01
5.097600000000000620e+01 9.999589988601379487e-01
5.112000000000000455e+01 9.999602729708286786e-01
5.126400000000000290e+01 9.999615281062350647e-01
5.140800000000000836e+01 9.999627641935409095e-01
5.155200000000000671e+01 9.999639811610298024e-01
5.169599999999999795e+01 9.999651789380864519e-01
5.183999999999999631e+01 9.999663574552075662e-01
5.198399999999999466e+01 9.999675166440016305e-01
5.212800000000000011e+01 9.999686564371924602e-01
5.227199999999999847e+01 9.999697767686258620e-01
5.241599999999999682e+01 9.999708775732745192e-01
5.255999999999999517e+01 9.999719587872366588e-01
5.270399999999999352e+01 9.999730203477472656e-01
5.284799999999999898e+01 9.999740621931756390e-01
5.299199999999999733e+01 9.999750842630332759e-01
5.313599999999999568e+01 9.999760864979763131e-01
5.327999999999999403e+01 9.999770688398070817e-01
5.342399999999999949e+01 9.999780312314809905e-01
5.356799999999999784e+01 9.999789736171103005e-01
5.371199999999999619e+01 9.999798959419627931e-01
5.385599999999999454e+01 9.999807981524707623e-01
5.400000000000000000e+01 9.999816801962309043e-01
5.414399999999999835e+01 9.999825420220070926e-01
5.428799999999999670e+01 9.999833835797378168e-01
5.443199999999999505e+01 9.999842048205351830e-01
5.457600000000000051e+01 9.999850056966880230e-01
5.471999999999999886e+01 9.999857861616683330e-01
5.486399999999999721e+01 9.999865461701283875e-01
5.500799999999999557e+01 9.999872856779112862e-01
5.515200000000000102e+01 9.999880046420454027e-01
5.529599999999999937e+01 9.999887030207533778e-01
5.543999999999999773e+01 9.999893807734516749e-01
5.558399999999999608e+01 9.999900378607531337e-01
5.572800000000000153e+01 9.999906742444717445e-01
5.587199999999999989e+01 9.999912898876208711e-01
5.601599999999999824e+01 9.999918847544193579e-01
5.615999999999999659e+01 9.999924588102926393e-01
5.630400000000000205e+01 9.999930120218727403e-01
5.644800000000000040e+01 9.999935443570051596e-01
5.659199999999999875e+01 9.999940557847452061e-01
5.673599999999999710e+01 9.999945462753626613e-01
5.688000000000000256e+01 9.999950158003462208e-01
5.702400000000000091e+01 9.999954643323998305e-01
5.716799999999999926e+01 9.999958918454473489e-01
5.731200000000001182e+01 9.999962983146352125e-01
