Theta (degrees)	Normalized Energy
0.000000000000000000e+00 4.365545918233630638e-16
3.603603603603603434e-01 4.057293873958486605e-06
7.207207207207206867e-01 1.622896905018610090e-05
1.081081081081080919e+00 3.651440616292669965e-05
1.441441441441441373e+00 6.491257283172902287e-05
1.801801801801801606e+00 1.014220235011583819e-04
2.162162162162161838e+00 1.460408992204821513e-04
2.522522522522522070e+00 1.987669273578719317e-04
2.882882882882882747e+00 2.595974212465762239e-04
3.243243243243243423e+00 3.285292797707753789e-04
3.603603603603603212e+00 4.055589868813701715e-04
3.963963963963963888e+00 4.906826110431576843e-04
4.324324324324323676e+00 5.838958046153608491e-04
4.684684684684683909e+00 6.851938031604894608e-04
5.045045045045044141e+00 7.945714246791326730e-04
5.405405405405405261e+00 9.120230687737389610e-04
5.765765765765765494e+00 1.037542715736289485e-03
6.126126126126124838e+00 1.171123925554918557e-03
6.486486486486486847e+00 1.312759836842098586e-03
6.846846846846846191e+00 1.462443165679517534e-03
7.207207207207206423e+00 1.620166204377681369e-03
7.567567567567566655e+00 1.785920820146677654e-03
7.927927927927927776e+00 1.959698453673008618e-03
8.288288288288287120e+00 2.141490117603435904e-03
8.648648648648647352e+00 2.331286394929802091e-03
9.009009009009007585e+00 2.529077437268933103e-03
9.369369369369367817e+00 2.734852963034782852e-03
9.729729729729729826e+00 2.948602255503916022e-03
1.009009009009008828e+01 3.170314160757805970e-03
1.045045045045044851e+01 3.399977085509377998e-03
1.081081081081081052e+01 3.637578994795668402e-03
1.117117117117117076e+01 3.883107409545856221e-03
1.153153153153153099e+01 4.136549404002168306e-03
1.189189189189189122e+01 4.397891603001091894e-03
1.225225225225224968e+01 4.667120179099534111e-03
1.261261261261261168e+01 4.944220849537930493e-03
1.297297297297297369e+01 5.229178873042629634e-03
1.333333333333333215e+01 5.521979046442157188e-03
1.369369369369369238e+01 5.822605701106021124e-03
1.405405405405405439e+01 6.131042699186049945e-03
1.441441441441441285e+01 6.447273429648914429e-03
1.477477477477477485e+01 6.771280804098004508e-03
1.513513513513513331e+01 7.103047252364667712e-03
1.549549549549549354e+01 7.442554717859265617e-03
1.585585585585585555e+01 7.789784652673103181e-03
1.621621621621621401e+01 8.144718012409405544e-03
1.657657657657657424e+01 8.507335250735773707e-03
1.693693693693693447e+01 8.877616313638099499e-03
1.729729729729729470e+01 9.255540633364180148e-03
1.765765765765765849e+01 9.641087122030154652e-03
1.801801801801801517e+01 1.003423416487944121e-02
1.837837837837837540e+01 1.043495961317287245e-02
1.873873873873873563e+01 1.084324077668598861e-02
1.909909909909909587e+01 1.125905441578360991e-02
1.945945945945945965e+01 1.168237673306622010e-02
1.981981981981981633e+01 1.211318336454209922e-02
2.018018018018017656e+01 1.255144937030478261e-02
2.054054054054054035e+01 1.299714922469201971e-02
2.090090090090089703e+01 1.345025680588282993e-02
2.126126126126126081e+01 1.391074538490534411e-02
2.162162162162162105e+01 1.437858761401907687e-02
2.198198198198198128e+01 1.485375551442429977e-02
2.234234234234234151e+01 1.533622046327186468e-02
2.270270270270269819e+01 1.582595317991099954e-02
2.306306306306306197e+01 1.632292371133290190e-02
2.342342342342342221e+01 1.682710141676888038e-02
2.378378378378378244e+01 1.733845495137005532e-02
2.414414414414414622e+01 1.785695224891476612e-02
2.450450450450449935e+01 1.838256050349066847e-02
2.486486486486486314e+01 1.891524615005890642e-02
2.522522522522522337e+01 1.945497484385154061e-02
2.558558558558558360e+01 2.000171143849845470e-02
2.594594594594594739e+01 2.055541996281615158e-02
2.630630630630630762e+01 2.111606359615152834e-02
2.666666666666666430e+01 2.168360464218904021e-02
2.702702702702702453e+01 2.225800450110411791e-02
2.738738738738738476e+01 2.283922363995406074e-02
2.774774774774774855e+01 2.342722156117198196e-02
2.810810810810810878e+01 2.402195676903262980e-02
2.846846846846846546e+01 2.462338673393656488e-02
2.882882882882882569e+01 2.523146785435364733e-02
2.918918918918918592e+01 2.584615541625155666e-02
2.954954954954954971e+01 2.646740354982440521e-02
2.990990990990990994e+01 2.709516518330347054e-02
3.027027027027026662e+01 2.772939199364323967e-02
3.063063063063063041e+01 2.837003435382841679e-02
3.099099099099098709e+01 2.901704127654497131e-02
3.135135135135135087e+01 2.967036035392485102e-02
3.171171171171171110e+01 3.032993769305260615e-02
3.207207207207207489e+01 3.099571784689619108e-02
3.243243243243242802e+01 3.166764374028541856e-02
3.279279279279278825e+01 3.234565659053587755e-02
3.315315315315314848e+01 3.302969582227652245e-02
3.351351351351351582e+01 3.371969897598983690e-02
3.387387387387386894e+01 3.441560160974316274e-02
3.423423423423423628e+01 3.511733719351985833e-02
3.459459459459458941e+01 3.582483699552682643e-02
3.495495495495494964e+01 3.653802995976521834e-02
3.531531531531531698e+01 3.725684257410964012e-02
3.567567567567567721e+01 3.798119872804617964e-02
3.603603603603603034e+01 3.871101955914556941e-02
3.639639639639639768e+01 3.944622328725267552e-02
3.675675675675675080e+01 4.018672503526573431e-02
3.711711711711711814e+01 4.093243663527201814e-02
3.747747747747747127e+01 4.168326641866784699e-02
3.783783783783783861e+01 4.243911898876077948e-02
3.819819819819819173e+01 4.319989497418715713e-02
3.855855855855855197e+01 4.396549076129506461e-02
3.891891891891891930e+01 4.473579820346307301e-02
3.927927927927927954e+01 4.551070430509016052e-02
3.963963963963963266e+01 4.629009087775198122e-02
4.000000000000000000e+01 4.707383416575820767e-02
4.036036036036035313e+01 4.786180443801410500e-02
4.072072072072072046e+01 4.865386554277912473e-02
4.108108108108108070e+01 4.944987442152200957e-02
4.144144144144143382e+01 5.024968057763169738e-02
4.180180180180179406e+01 5.105312549531211552e-02
4.216216216216216139e+01 5.186004200341707421e-02
4.252252252252252163e+01 5.267025357842186617e-02
4.288288288288288186e+01 5.348357358006145673e-02
4.324324324324324209e+01 5.429980441244038752e-02
4.360360360360360232e+01 5.511873660261056018e-02
4.396396396396396256e+01 5.594014778771974616e-02
4.432432432432431568e+01 5.676380160083280280e-02
4.468468468468468302e+01 5.758944644446031130e-02
4.504504504504503615e+01 5.841681413960974484e-02
4.540540540540539638e+01 5.924561843689588048e-02
4.576576576576576372e+01 6.007555337481585572e-02
4.612612612612612395e+01 6.090629146881418321e-02
4.648648648648648418e+01 6.173748171312606198e-02
4.684684684684684441e+01 6.256874737575496281e-02
4.720720720720720465e+01 6.339968356521860637e-02
4.756756756756756488e+01 6.422985454600955990e-02
4.792792792792792511e+01 6.505879077815585054e-02
4.828828828828829245e+01 6.588598565485978553e-02
4.864864864864863847e+01 6.671089191119337902e-02
4.900900900900899870e+01 6.753291767637606413e-02
4.936936936936936604e+01 6.835142214257866611e-02
4.972972972972972627e+01 6.916571082483513599e-02
5.009009009009008651e+01 6.997503039005796566e-02
5.045045045045044674e+01 7.077856303889452916e-02
5.081081081081080697e+01 7.157542043321843406e-02
5.117117117117116720e+01 7.236463717528905659e-02
5.153153153153152743e+01 7.314516386349835531e-02
5.189189189189189477e+01 7.391585977564445187e-02
5.225225225225224079e+01 7.467548526569266210e-02
5.261261261261261524e+01 7.542269400610988883e-02
5.297297297297296836e+01 7.615602526730795574e-02
5.333333333333332860e+01 7.687389650064647972e-02
5.369369369369368883e+01 7.757459658354605436e-02
5.405405405405404906e+01 7.825628019529423662e-02
5.441441441441440929e+01 7.891696391893310292e-02
5.477477477477476953e+01 7.955452480414956784e-02
5.513513513513512976e+01 8.016670226977060110e-02
5.549549549549549710e+01 8.075110435783525165e-02
5.585585585585584312e+01 8.130521945197087541e-02
5.621621621621621756e+01 8.182643461057496903e-02
5.657657657657657069e+01 8.231206160150167372e-02
5.693693693693693092e+01 8.275937151663215197e-02
5.729729729729729115e+01 8.316563845099203545e-02
5.765765765765765138e+01 8.352819212449806574e-02
5.801801801801801162e+01 8.384447850570447835e-02
5.837837837837837185e+01 8.411212651074356783e-02
5.873873873873872498e+01 8.432901779689880306e-02
5.909909909909909942e+01 8.449335570407413842e-02
5.945945945945945965e+01 8.460372871068345957e-02
5.981981981981981988e+01 8.465916355386041148e-02
6.018018018018017301e+01 8.465916355386025882e-02
6.054054054054053324e+01 8.460372871068318201e-02
6.090090090090089348e+01 8.449335570407413842e-02
6.126126126126126081e+01 8.432901779689858102e-02
6.162162162162162815e+01 8.411212651074356783e-02
6.198198198198197417e+01 8.384447850570461713e-02
6.234234234234234151e+01 8.352819212449755226e-02
6.270270270270270174e+01 8.316563845099167462e-02
6.306306306306305487e+01 8.275937151663199931e-02
6.342342342342342221e+01 8.231206160150203455e-02
6.378378378378378244e+01 8.182643461057519108e-02
6.414414414414414978e+01 8.130521945197058398e-02
6.450450450450449580e+01 8.075110435783539042e-02
6.486486486486485603e+01 8.016670226977060110e-02
6.522522522522521626e+01 7.955452480414934580e-02
6.558558558558557650e+01 7.891696391893318618e-02
6.594594594594595094e+01 7.825628019529372315e-02
6.630630630630629696e+01 7.757459658354583232e-02
6.666666666666665719e+01 7.687389650064641033e-02
6.702702702702703164e+01 7.615602526730744226e-02
6.738738738738737766e+01 7.542269400610944474e-02
6.774774774774773789e+01 7.467548526569252332e-02
6.810810810810811233e+01 7.391585977564445187e-02
6.846846846846847257e+01 7.314516386349806387e-02
6.882882882882883280e+01 7.236463717528869577e-02
6.918918918918917882e+01 7.157542043321822589e-02
6.954954954954953905e+01 7.077856303889423772e-02
6.990990990990989928e+01 6.997503039005789627e-02
7.027027027027025952e+01 6.916571082483513599e-02
7.063063063063063396e+01 6.835142214257779181e-02
7.099099099099099419e+01 6.753291767637599474e-02
7.135135135135135442e+01 6.671089191119301820e-02
7.171171171171170045e+01 6.588598565485949410e-02
7.207207207207206068e+01 6.505879077815571176e-02
7.243243243243242091e+01 6.422985454600912969e-02
7.279279279279279535e+01 6.339968356521824555e-02
7.315315315315315559e+01 6.256874737575496281e-02
7.351351351351350161e+01 6.173748171312570115e-02
7.387387387387387605e+01 6.090629146881410688e-02
7.423423423423423628e+01 6.007555337481592511e-02
7.459459459459458230e+01 5.924561843689529761e-02
7.495495495495494254e+01 5.841681413960952973e-02
7.531531531531531698e+01 5.758944644445995048e-02
7.567567567567567721e+01 5.676380160083258769e-02
7.603603603603602323e+01 5.594014778771974616e-02
7.639639639639638347e+01 5.511873660261042140e-02
7.675675675675674370e+01 5.429980441243995037e-02
7.711711711711710393e+01 5.348357358006116530e-02
7.747747747747747837e+01 5.267025357842165106e-02
7.783783783783783861e+01 5.186004200341685216e-02
7.819819819819819884e+01 5.105312549531182409e-02
7.855855855855855907e+01 5.024968057763140594e-02
7.891891891891890509e+01 4.944987442152193324e-02
7.927927927927926532e+01 4.865386554277927045e-02
7.963963963963963977e+01 4.786180443801330009e-02
8.000000000000000000e+01 4.707383416575777052e-02
8.036036036036036023e+01 4.629009087775205061e-02
8.072072072072070625e+01 4.551070430508972336e-02
8.108108108108108070e+01 4.473579820346299668e-02
8.144144144144144093e+01 4.396549076129470379e-02
8.180180180180180116e+01 4.319989497418649793e-02
8.216216216216216139e+01 4.243911898876056438e-02
8.252252252252252163e+01 4.168326641866711840e-02
8.288288288288286765e+01 4.093243663527172671e-02
8.324324324324324209e+01 4.018672503526573431e-02
8.360360360360358811e+01 3.944622328725231469e-02
8.396396396396394834e+01 3.871101955914534737e-02
8.432432432432432279e+01 3.798119872804559677e-02
8.468468468468468302e+01 3.725684257410934869e-02
8.504504504504504325e+01 3.653802995976471180e-02
8.540540540540538927e+01 3.582483699552638928e-02
8.576576576576576372e+01 3.511733719351949751e-02
8.612612612612610974e+01 3.441560160974243415e-02
8.648648648648648418e+01 3.371969897598954546e-02
8.684684684684685863e+01 3.302969582227601592e-02
8.720720720720720465e+01 3.234565659053580122e-02
8.756756756756755067e+01 3.166764374028491202e-02
8.792792792792792511e+01 3.099571784689582679e-02
8.828828828828828534e+01 3.032993769305209961e-02
8.864864864864863137e+01 2.967036035392463592e-02
8.900900900900900581e+01 2.901704127654460702e-02
8.936936936936936604e+01 2.837003435382819821e-02
8.972972972972972627e+01 2.772939199364258742e-02
9.009009009009007229e+01 2.709516518330296053e-02
9.045045045045044674e+01 2.646740354982425950e-02
9.081081081081079276e+01 2.584615541625126522e-02
9.117117117117116720e+01 2.523146785435299508e-02
9.153153153153152743e+01 2.462338673393634630e-02
9.189189189189188767e+01 2.402195676903204694e-02
9.225225225225224790e+01 2.342722156117139909e-02
9.261261261261259392e+01 2.283922363995355073e-02
9.297297297297296836e+01 2.225800450110375361e-02
9.333333333333331439e+01 2.168360464218860653e-02
9.369369369369368883e+01 2.111606359615087261e-02
9.405405405405406327e+01 2.055541996281542300e-02
9.441441441441440929e+01 2.000171143849779898e-02
9.477477477477476953e+01 1.945497484385132550e-02
9.513513513513512976e+01 1.891524615005868784e-02
9.549549549549548999e+01 1.838256050349001622e-02
9.585585585585585022e+01 1.785695224891447469e-02
9.621621621621621046e+01 1.733845495136925735e-02
9.657657657657658490e+01 1.682710141676866528e-02
9.693693693693693092e+01 1.632292371133210046e-02
9.729729729729727694e+01 1.582595317991056239e-02
9.765765765765765138e+01 1.533622046327208326e-02
9.801801801801799741e+01 1.485375551442393548e-02
9.837837837837837185e+01 1.437858761401856686e-02
9.873873873873873208e+01 1.391074538490520013e-02
9.909909909909909231e+01 1.345025680588217420e-02
9.945945945945945255e+01 1.299714922469150970e-02
9.981981981981979857e+01 1.255144937030434546e-02
1.001801801801801730e+02 1.211318336454195350e-02
1.005405405405405475e+02 1.168237673306578295e-02
1.009009009009008935e+02 1.125905441578346419e-02
1.012612612612612679e+02 1.084324077668569718e-02
1.016216216216216139e+02 1.043495961317294531e-02
1.019819819819819742e+02 1.003423416487886008e-02
1.023423423423423344e+02 9.641087122029498926e-03
1.027027027027027088e+02 9.255540633363890449e-03
1.030630630630630549e+02 8.877616313638026641e-03
1.034234234234234151e+02 8.507335250735336557e-03
1.037837837837837895e+02 8.144718012408678695e-03
1.041441441441441356e+02 7.789784652672593172e-03
1.045045045045044816e+02 7.442554717858974184e-03
1.048648648648648560e+02 7.103047252364231429e-03
1.052252252252252305e+02 6.771280804097931649e-03
1.055855855855855765e+02 6.447273429648623863e-03
1.059459459459459367e+02 6.131042699185322228e-03
1.063063063063062970e+02 5.822605701105729691e-03
1.066666666666666572e+02 5.521979046441356613e-03
1.070270270270270032e+02 5.229178873042193351e-03
1.073873873873873777e+02 4.944220849537639059e-03
1.077477477477477521e+02 4.667120179099096960e-03
1.081081081081080981e+02 4.397891603000582753e-03
1.084684684684684726e+02 4.136549404001368599e-03
1.088288288288288186e+02 3.883107409545201363e-03
1.091891891891891788e+02 3.637578994795595544e-03
1.095495495495495391e+02 3.399977085508795564e-03
1.099099099099099135e+02 3.170314160757514970e-03
1.102702702702702595e+02 2.948602255503406447e-03
1.106306306306306197e+02 2.734852963034346135e-03
1.109909909909909942e+02 2.529077437268132528e-03
1.113513513513513402e+02 2.331286394929729233e-03
1.117117117117116862e+02 2.141490117603217329e-03
1.120720720720720607e+02 1.959698453672717618e-03
1.124324324324324351e+02 1.785920820146605012e-03
1.127927927927927811e+02 1.620166204377681369e-03
1.131531531531531414e+02 1.462443165679081034e-03
1.135135135135135016e+02 1.312759836842098586e-03
1.138738738738738618e+02 1.171123925555064057e-03
1.142342342342342363e+02 1.037542715736507843e-03
1.145945945945945823e+02 9.120230687735206027e-04
1.149549549549549567e+02 7.945714246786233148e-04
1.153153153153153028e+02 6.851938031598346027e-04
1.156756756756756630e+02 5.838958046153608491e-04
1.160360360360360232e+02 4.906826110428666845e-04
1.163963963963963835e+02 4.055589868810063675e-04
1.167567567567567437e+02 3.285292797704115748e-04
1.171171171171171039e+02 2.595974212457758659e-04
1.174774774774774500e+02 1.987669273575081547e-04
1.178378378378378386e+02 1.460408992206276512e-04
1.181981981981981988e+02 1.014220235007218279e-04
1.185585585585585591e+02 6.491257283143798235e-05
1.189189189189189193e+02 3.651440616256290239e-05
1.192792792792792653e+02 1.622896904989506377e-05
1.196396396396396398e+02 4.057293873521931753e-06
1.199999999999999858e+02 0.000000000000000000e+00
1.203603603603603460e+02 4.057293873740209602e-06
1.207207207207207063e+02 1.622896904982230364e-05
1.210810810810810665e+02 3.651440616292669965e-05
1.214414414414414125e+02 6.491257283143798235e-05
1.218018018018017870e+02 1.014220235010856319e-04
1.221621621621621330e+02 1.460408992204821513e-04
1.225225225225225216e+02 1.987669273574353777e-04
1.228828828828828819e+02 2.595974212458486158e-04
1.232432432432432563e+02 3.285292797704115748e-04
1.236036036036036023e+02 4.055589868811518674e-04
1.239639639639639483e+02 4.906826110429394344e-04
1.243243243243243228e+02 5.838958046152153492e-04
1.246846846846846830e+02 6.851938031599801027e-04
1.250450450450450290e+02 7.945714246786233148e-04
1.254054054054054035e+02 9.120230687735206027e-04
1.257657657657657495e+02 1.037542715736289485e-03
1.261261261261261097e+02 1.171123925555064057e-03
1.264864864864864700e+02 1.312759836841734728e-03
1.268468468468468444e+02 1.462443165679444892e-03
1.272072072072072189e+02 1.620166204377681369e-03
1.275675675675675649e+02 1.785920820146605012e-03
1.279279279279279251e+02 1.959698453672717618e-03
1.282882882882882996e+02 2.141490117603363046e-03
1.286486486486486456e+02 2.331286394929802091e-03
1.290090090090089916e+02 2.529077437268060103e-03
1.293693693693693660e+02 2.734852963034200852e-03
1.297297297297297121e+02 2.948602255503406447e-03
1.300900900900900581e+02 3.170314160757514970e-03
1.304504504504504325e+02 3.399977085508650281e-03
1.308108108108107785e+02 3.637578994795450261e-03
1.311711711711711530e+02 3.883107409544910363e-03
1.315315315315315274e+02 4.136549404001368599e-03
1.318918918918919019e+02 4.397891603000873319e-03
1.322522522522522479e+02 4.667120179099096960e-03
1.326126126126125939e+02 4.944220849537857634e-03
1.329729729729729684e+02 5.229178873042265342e-03
1.333333333333333144e+02 5.521979046441647179e-03
1.336936936936936888e+02 5.822605701105366266e-03
1.340540540540540633e+02 6.131042699185686520e-03
1.344144144144144093e+02 6.447273429649133004e-03
1.347747747747747553e+02 6.771280804098223083e-03
1.351351351351351298e+02 7.103047252364158570e-03
1.354954954954954758e+02 7.442554717858901325e-03
1.358558558558558218e+02 7.789784652672811747e-03
1.362162162162162247e+02 8.144718012408824412e-03
1.365765765765765707e+02 8.507335250735482274e-03
1.369369369369369451e+02 8.877616313638172357e-03
1.372972972972972912e+02 9.255540633363963307e-03
1.376576576576576656e+02 9.641087122029717502e-03
1.380180180180180116e+02 1.003423416487864150e-02
1.383783783783783576e+02 1.043495961317287245e-02
1.387387387387387321e+02 1.084324077668569718e-02
1.390990990990990781e+02 1.125905441578339133e-02
1.394594594594594525e+02 1.168237673306622010e-02
1.398198198198197986e+02 1.211318336454173493e-02
1.401801801801801730e+02 1.255144937030434546e-02
1.405405405405405190e+02 1.299714922469158256e-02
1.409009009009008935e+02 1.345025680588275707e-02
1.412612612612612679e+02 1.391074538490527125e-02
1.416216216216216139e+02 1.437858761401856686e-02
1.419819819819819884e+02 1.485375551442444549e-02
1.423423423423423344e+02 1.533622046327201040e-02
1.427027027027027088e+02 1.582595317991070810e-02
1.430630630630630549e+02 1.632292371133253761e-02
1.434234234234234009e+02 1.682710141676895324e-02
