Theta (degrees)	Normalized Energy
0.000000000000000000e+00 1.000000000000000000e+00
5.402701350675338521e-01 9.996274474588680015e-01
1.080540270135067704e+00 9.985146571974102825e-01
1.620810405202601334e+00 9.966759026665804599e-01
2.161080540270135408e+00 9.941339282031558255e-01
2.701350675337669038e+00 9.909185457505862438e-01
3.241620810405202668e+00 9.870649544628398164e-01
3.781890945472736743e+00 9.826119830366344399e-01
4.322161080540270817e+00 9.776004260733108797e-01
4.862431215607804447e+00 9.720715950422745832e-01
5.402701350675338077e+00 9.660661483301807850e-01
5.942971485742871707e+00 9.596232161234309332e-01
6.483241620810405337e+00 9.527798009119763378e-01
7.023511755877938967e+00 9.455704141368379556e-01
7.563781890945473485e+00 9.380269014642048653e-01
8.104052026013006227e+00 9.301784096095763177e-01
8.644322161080541633e+00 9.220514529591844477e-01
9.184592296148075263e+00 9.136700456656785541e-01
9.724862431215608893e+00 9.050558726097929219e-01
1.026513256628314252e+01 8.962284796073733961e-01
1.080540270135067615e+01 8.872054690651524078e-01
1.134567283641820978e+01 8.780026918672673153e-01
1.188594297148574341e+01 8.686344297141439519e-01
1.242621310655327704e+01 8.591135646211082166e-01
1.296648324162081067e+01 8.494517340164455810e-01
1.350675337668834608e+01 8.396594710403176842e-01
1.404702351175587793e+01 8.297463303903584997e-01
1.458729364682341156e+01 8.197210005075012962e-01
1.512756378189094697e+01 8.095914031385148535e-01
1.566783391695848060e+01 7.993647814172061272e-01
1.620810405202601245e+01 7.890477776227672324e-01
1.674837418709354608e+01 7.786465017351564821e-01
1.728864432216108327e+01 7.681665918371191060e-01
1.782891445722861690e+01 7.576132673259182715e-01
1.836918459229615053e+01 7.469913758054674835e-01
1.890945472736368416e+01 7.363054344375415949e-01
1.944972486243121779e+01 7.255596664430498111e-01
1.998999499749875142e+01 7.147580333630808580e-01
2.053026513256628505e+01 7.039042636155663502e-01
2.107053526763381868e+01 6.930018778170415894e-01
2.161080540270135231e+01 6.820542112803246182e-01
2.215107553776888594e+01 6.710644340470218738e-01
2.269134567283641957e+01 6.600355687685256489e-01
2.323161580790394964e+01 6.489705067095912217e-01
2.377188594297148683e+01 6.378720221143149294e-01
2.431215607803902046e+01 6.267427851446013554e-01
2.485242621310655409e+01 6.155853735756354750e-01
2.539269634817408772e+01 6.044022834107197761e-01
2.593296648324162135e+01 5.931959385589606892e-01
2.647323661830915853e+01 5.819686997030425468e-01
2.701350675337669216e+01 5.707228724705093459e-01
2.755377688844422224e+01 5.594607150103022564e-01
2.809404702351175587e+01 5.481844450664121737e-01
2.863431715857928950e+01 5.368962466323622396e-01
2.917458729364682313e+01 5.255982762634704430e-01
2.971485742871436031e+01 5.142926691185717436e-01
3.025512756378189394e+01 5.029815447986143440e-01
3.079539769884942402e+01 4.916670130467182265e-01
3.133566783391696120e+01 4.803511793722471390e-01
3.187593796898449128e+01 4.690361506607327313e-01
3.241620810405202491e+01 4.577240408316228804e-01
3.295647823911956209e+01 4.464169766071894863e-01
3.349674837418709217e+01 4.351171034582629327e-01
3.403701850925462935e+01 4.238265917960889473e-01
3.457728864432216653e+01 4.125476434844075890e-01
3.511755877938969661e+01 4.012824987521316777e-01
3.565782891445723379e+01 3.900334435948495382e-01
3.619809904952476387e+01 3.788028177628949833e-01
3.673836918459230105e+01 3.675930234454548584e-01
3.727863931965983113e+01 3.564065347741570133e-01
3.781890945472736831e+01 3.452459082862319728e-01
3.835917958979489839e+01 3.341137945073491267e-01
3.889944972486243557e+01 3.230129508378120629e-01
3.943971985992996565e+01 3.119462559538759283e-01
3.997998999499750283e+01 3.009167259691778451e-01
4.052026013006503291e+01 2.899275326406209330e-01
4.106053026513257009e+01 2.789820239496021981e-01
4.160080040020010728e+01 2.680837474445835755e-01
4.214107053526763735e+01 2.572364767960148568e-01
4.268134067033517454e+01 2.464442420914945697e-01
4.322161080540270461e+01 2.357113644894959226e-01
4.376188094047023469e+01 2.250424959563719907e-01
4.430215107553777187e+01 2.144426649358662507e-01
4.484242121060530195e+01 2.039173289454396798e-01
4.538269134567283913e+01 1.934724352613662601e-01
4.592296148074036921e+01 1.831144910465724862e-01
4.646323161580789929e+01 1.728506444915158535e-01
4.700350175087544358e+01 1.626887787773093896e-01
4.754377188594297365e+01 1.526376209255917160e-01
4.808404202101051084e+01 1.427068678586290162e-01
4.862431215607804091e+01 1.329073322329206719e-01
4.916458229114557810e+01 1.232511107904026570e-01
4.970485242621310817e+01 1.137517780291564945e-01
5.024512256128064536e+01 1.044246078289755714e-01
5.078539269634817543e+01 9.528682512212169331e-02
5.132566283141571262e+01 8.635788854741570375e-02
5.186593296648324269e+01 7.765980293881695473e-02
5.240620310155077277e+01 6.921745702727399863e-02
5.294647323661831706e+01 6.105897628928651927e-02
5.348674337168584714e+01 5.321607275477267113e-02
5.402701350675338432e+01 4.572436206532027453e-02
5.456728364182091440e+01 3.862360263852088887e-02
5.510755377688844447e+01 3.195779260017934248e-02
5.564782391195598166e+01 2.577503878058815326e-02
5.618809404702351173e+01 2.012709260568918551e-02
5.672836418209104181e+01 1.506843778541080980e-02
5.726863431715857899e+01 1.065482585679532190e-02
5.780890445222611618e+01 6.941201596183805590e-03
5.834917458729364625e+01 3.979051580018842793e-03
5.888944472236119054e+01 1.813343738569298848e-03
5.942971485742872062e+01 4.793791418233364870e-04
5.996998499249625070e+01 0.000000000000000000e+00
6.051025512756378788e+01 3.836293608623923997e-04
6.105052526263132506e+01 1.623517358001264586e-03
6.159079539769884803e+01 3.698346566084990440e-03
6.213106553276638522e+01 6.574073580703283792e-03
6.267133566783392240e+01 1.020665145944510584e-02
6.321160580290144537e+01 1.454516185828569168e-02
6.375187593796898256e+01 1.953490382352351257e-02
6.429214607303651974e+01 2.512010174763771794e-02
6.483241620810404982e+01 3.124604782556327995e-02
6.537268634317157989e+01 3.786063269513115920e-02
6.591295647823912418e+01 4.491531445532038341e-02
6.645322661330665426e+01 5.236562686469509870e-02
6.699349674837418434e+01 6.017134186380786870e-02
6.753376688344172862e+01 6.829639334361513325e-02
6.807403701850925870e+01 7.670865022592729399e-02
6.861430715357678878e+01 8.537960550955463190e-02
6.915457728864433307e+01 9.428402838675904729e-02
6.969484742371186314e+01 1.033996106555168243e-01
7.023511755877939322e+01 1.127066267149200579e-01
7.077538769384692330e+01 1.221876179667261697e-01
7.131565782891446759e+01 1.318271067399711671e-01
7.185592796398198345e+01 1.416113411952454604e-01
7.239619809904952774e+01 1.515280704491796249e-01
7.293646823411705782e+01 1.615663479217585852e-01
7.347673836918460211e+01 1.717163603095652746e-01
7.401700850425211797e+01 1.819692793881267090e-01
7.455727863931966226e+01 1.923171338853457979e-01
7.509754877438720655e+01 2.027526988387903795e-01
7.563781890945473663e+01 2.132694000851880767e-01
7.617808904452226670e+01 2.238612317887722636e-01
7.671835917958979678e+01 2.345226851714984906e-01
7.725862931465732686e+01 2.452486868493658767e-01
7.779889944972487115e+01 2.560345453980120145e-01
7.833916958479240122e+01 2.668759049655378690e-01
7.887943971985993130e+01 2.777687049207254177e-01
7.941970985492746138e+01 2.887091446724036614e-01
7.995997998999500567e+01 2.996936529223455659e-01
8.050025012506252153e+01 3.107188607223557164e-01
8.104052026013006582e+01 3.217815777983408787e-01
8.158079039519761011e+01 3.328787716824270215e-01
8.212106053026514019e+01 3.440075492604130480e-01
8.266133066533267026e+01 3.551651403980111144e-01
8.320160080040021455e+01 3.663488833567208336e-01
8.374187093546774463e+01 3.775562117502953563e-01
8.428214107053527471e+01 3.887846428266553134e-01
8.482241120560280478e+01 4.000317668885853828e-01
8.536268134067034907e+01 4.112952376908171614e-01
8.590295147573786494e+01 4.225727636712252044e-01
8.644322161080540923e+01 4.338620998910596160e-01
8.698349174587295352e+01 4.451610405732979170e-01
8.752376188094046938e+01 4.564674121401640083e-01
8.806403201600801367e+01 4.677790666606368997e-01
8.860430215107554375e+01 4.790938756267797971e-01
8.914457228614307382e+01 4.904097239841430644e-01
8.968484242121060390e+01 5.017245043465273779e-01
9.022511255627814819e+01 5.130361113290259345e-01
9.076538269134567827e+01 5.243424359358870301e-01
9.130565282641320835e+01 5.356413599410241311e-01
9.184592296148073842e+01 5.469307501995079868e-01
9.238619309654828271e+01 5.582084528274735558e-01
9.292646323161579858e+01 5.694722871862560876e-01
9.346673336668334287e+01 5.807200396036327206e-01
9.400700350175088715e+01 5.919494567610517066e-01
9.454727363681840302e+01 6.031582386705640619e-01
9.508754377188594731e+01 6.143440311585220970e-01
9.562781390695347739e+01 6.255044177652232529e-01
9.616808404202102167e+01 6.366369109598840614e-01
9.670835417708853754e+01 6.477389425589556993e-01
9.724862431215608183e+01 6.588078532221830486e-01
9.778889444722361191e+01 6.698408808848582696e-01
9.832916458229115619e+01 6.808351479661286509e-01
9.886943471735867206e+01 6.917876471715103115e-01
9.940970485242621635e+01 7.026952256825239607e-01
9.994997498749376064e+01 7.135545674971789376e-01
1.004902451225612907e+02 7.243621736512185771e-01
1.010305152576288350e+02 7.351143400112265525e-01
1.015707853926963509e+02 7.458071322858842445e-01
1.021110555277638952e+02 7.564363578508399577e-01
1.026513256628314252e+02 7.669975339244062829e-01
1.031915957978989553e+02 7.774858515661365876e-01
1.037318659329664854e+02 7.878961348970614509e-01
1.042721360680340297e+02 7.982227948600187917e-01
1.048124062031015455e+02 8.084597767513914679e-01
1.053526763381690898e+02 8.186005006639116566e-01
1.058929464732366341e+02 8.286377938875342242e-01
1.064332166083041500e+02 8.385638142278746265e-01
1.069734867433716943e+02 8.483699631288658116e-01
1.075137568784392244e+02 8.580467874432492481e-01
1.080540270135067686e+02 8.675838687034251873e-01
1.085942971485742845e+02 8.769696988387183367e-01
1.091345672836418288e+02 8.861915415098411408e-01
1.096748374187093589e+02 8.952352786522237427e-01
1.102151075537768889e+02 9.040852425259690017e-01
1.107553776888444190e+02 9.127240346785351344e-01
1.112956478239119633e+02 9.211323348867128669e-01
1.118359179589794792e+02 9.292887055365388616e-01
1.123761880940470235e+02 9.371694002239265853e-01
1.129164582291145678e+02 9.447481898029979064e-01
1.134567283641820836e+02 9.519962247945162881e-01
1.139969984992496279e+02 9.588819599381079861e-01
1.145372686343171580e+02 9.653711743436681481e-01
1.150775387693847023e+02 9.714271282317361589e-01
1.156178089044522324e+02 9.770109029299128833e-01
1.161580790395197624e+02 9.820819719415645466e-01
1.166983491745872925e+02 9.865990439973064685e-01
1.172386193096548368e+02 9.905212002542506111e-01
1.177788894447223811e+02 9.938093145178240606e-01
1.183191595797899112e+02 9.964276979532462608e-01
1.188594297148574412e+02 9.983458539643728091e-01
1.193996998499249571e+02 9.995401768002633025e-01
1.199399699849925014e+02 9.999953955946190298e-01
1.204802401200600315e+02 9.997055697386942885e-01
1.210205102551275758e+02 9.986744892369023852e-01
1.215607803901951058e+02 9.969154184333280933e-01
1.221010505252626501e+02 9.944502227258837923e-01
1.226413206603301944e+02 9.913080084513685719e-01
1.231815907953976961e+02 9.875234632062612761e-01
1.237218609304652261e+02 9.831350975275409132e-01
1.242621310655327704e+02 9.781835638212887929e-01
1.248024012006003147e+02 9.727101792990691109e-01
1.253426713356678448e+02 9.667557234552198731e-01
1.258829414707353891e+02 9.603595306307493029e-01
1.264232116058028907e+02 9.535588615896815057e-01
1.269634817408704208e+02 9.463885162153271580e-01
1.275037518759379651e+02 9.388806402127936046e-01
1.280440220110054952e+02 9.310646783912233104e-01
1.285842921460730395e+02 9.229674320349514627e-01
1.291245622811405838e+02 9.146131851755829878e-01
1.296648324162080996e+02 9.060238723227228563e-01
1.302051025512756155e+02 8.972192673095559234e-01
1.307453726863431598e+02 8.882171788717212468e-01
1.312856428214107041e+02 8.790336432919354515e-01
1.318259129564782484e+02 8.696831080005701375e-01
1.323661830915457926e+02 8.601786026041192690e-01
1.329064532266133085e+02 8.505318956201842751e-01
1.334467233616808528e+02 8.407536364143007868e-01
1.339869934967483687e+02 8.308534826184179600e-01
1.345272636318159130e+02 8.208402137863254344e-01
1.350675337668834572e+02 8.107218323034187657e-01
1.356078039019509731e+02 8.005056526861072941e-01
1.361480740370185174e+02 7.901983804307899373e-01
1.366883441720860333e+02 7.798061815385016748e-01
1.372286143071535776e+02 7.693347437736175465e-01
1.377688844422211218e+02 7.587893306298216789e-01
1.383091545772886661e+02 7.481748288842990924e-01
1.388494247123561820e+02 7.374957905289295512e-01
1.393896948474237263e+02 7.267564697789078432e-01
1.399299649824912706e+02 7.159608557771919291e-01
1.404702351175587864e+02 7.051127015384053287e-01
1.410105052526263023e+02 6.942155496087605293e-01
1.415507753876938466e+02 6.832727548588906075e-01
1.420910455227613909e+02 6.722875047740081156e-01
1.426313156578289352e+02 6.612628375597490171e-01
1.431715857928964795e+02 6.502016583419181206e-01
1.437118559279639669e+02 6.391067537035343138e-01
1.442521260630315112e+02 6.279808047723837161e-01
1.447923961980990555e+02 6.168263990461929636e-01
1.453326663331665998e+02 6.056460411201272098e-01
1.458729364682341156e+02 5.944421624620640499e-01
1.464132066033016599e+02 5.832171303644968496e-01
1.469534767383692042e+02 5.719732561880126465e-01
1.474937468734367201e+02 5.607128029991832463e-01
1.480340170085042359e+02 5.494379926958499194e-01
1.485742871435717802e+02 5.381510127042410385e-01
1.491145572786393245e+02 5.268540223256603650e-01
1.496548274137068688e+02 5.155491588048483065e-01
1.501950975487744131e+02 5.042385431879428115e-01
1.507353676838419290e+02 4.929242860347851085e-01
1.512756378189094733e+02 4.816084930483980897e-01
1.518159079539769891e+02 4.702932706834277443e-01
1.523561780890445334e+02 4.589807317954811561e-01
1.528964482241120493e+02 4.476730013944925646e-01
1.534367183591795936e+02 4.363722225674721567e-01
1.539769884942471094e+02 4.250805626394515424e-01
1.545172586293146537e+02 4.138002196461326165e-01
1.550575287643821980e+02 4.025334291978826529e-01
1.555977988994497423e+02 3.912824718222462361e-01
1.561380690345172866e+02 3.800496808817112049e-01
1.566783391695848024e+02 3.688374511746327356e-01
1.572186093046523467e+02 3.576482483411891899e-01
1.577588794397198626e+02 3.464846192124115265e-01
1.582991495747874069e+02 3.353492032600118300e-01
1.588394197098549228e+02 3.242447453278533009e-01
1.593796898449224670e+02 3.131741098534849832e-01
1.599199599799900113e+02 3.021402968207304585e-01
1.604602301150575556e+02 2.911464597230050133e-01
1.610005002501250431e+02 2.801959258626285365e-01
1.615407703851925874e+02 2.692922193656009933e-01
1.620810405202601316e+02 2.584390873550431178e-01
1.626213106553276759e+02 2.476405298020235290e-01
1.631615807903952202e+02 2.369008336613043497e-01
1.637018509254627361e+02 2.262246120040461439e-01
1.642421210605302804e+02 2.156168489819002276e-01
1.647823911955977962e+02 2.050829515995609142e-01
1.653226613306653405e+02 1.946288094380005107e-01
1.658629314657328564e+02 1.842608636596998473e-01
1.664032016008004291e+02 1.739861868410817469e-01
1.669434717358679450e+02 1.638125754137389756e-01
1.674837418709354893e+02 1.537486567501674672e-01
1.680240120060029767e+02 1.438040131890814533e-01
1.685642821410705494e+02 1.339893255390061932e-01
1.691045522761380653e+02 1.243165387887105872e-01
1.696448224112056096e+02 1.147990528288654888e-01
1.701850925462731539e+02 1.054519408540574160e-01
1.707253626813406981e+02 9.629219762111733416e-02
1.712656328164081856e+02 8.733901866908033718e-02
1.718059029514757299e+02 7.861410964288371994e-02
1.723461730865432742e+02 7.014202157084598044e-02
1.728864432216108185e+02 6.195050275304523485e-02
1.734267133566783343e+02 5.407085013075803304e-02
1.739669834917459070e+02 4.653823189579474329e-02
1.745072536268134229e+02 3.939193810784144545e-02
1.750475237618809388e+02 3.267549726780667740e-02
1.755877938969484546e+02 2.643657552524524348e-02
1.761280640320160273e+02 2.072655521713810678e-02
1.766683341670835432e+02 1.559967794386362891e-02
1.772086043021510875e+02 1.111164553233488610e-02
1.777488744372186034e+02 7.317613680332124559e-03
1.782891445722861476e+02 4.269599083182600355e-03
1.788294147073536919e+02 2.013451328315348302e-03
1.793696848424212078e+02 5.856941799570328840e-04
1.799099549774887805e+02 1.067003318601641233e-05
1.804502251125562964e+02 2.984656486682947334e-04
1.809904952476238122e+02 1.444011946097382114e-03
1.815307653826913565e+02 3.427539398817113728e-03
1.820710355177589008e+02 6.216296376500851824e-03
1.826113056528264167e+02 9.767196066962564524e-03
1.831515757878939610e+02 1.402992683952179742e-02
1.836918459229614768e+02 1.895006517975723198e-02
1.842321160580290496e+02 2.447183790062062644e-02
1.847723861930965654e+02 3.054033194121209827e-02
1.853126563281640813e+02 3.710309185892631673e-02
1.858529264632315972e+02 4.411114683607395698e-02
1.863931965982991699e+02 5.151956441205898102e-02
1.869334667333666857e+02 5.928764585469289972e-02
1.874737368684342300e+02 6.737887171857777358e-02
1.880140070035017743e+02 7.576068799098688300e-02
1.885542771385692902e+02 8.440420182000586691e-02
1.890945472736368060e+02 9.328383593668522489e-02
1.896348174087043503e+02 1.023769745627420569e-01
1.901750875437718946e+02 1.116636212339626455e-01
1.907153576788394389e+02 1.211260801530552045e-01
1.912556278139069548e+02 1.307486667094445165e-01
1.917958979489745275e+02 1.405174489482739486e-01
1.923361680840420433e+02 1.504200194196117224e-01
1.928764382191095592e+02 1.604452955113696566e-01
1.934167083541770751e+02 1.705833457121884444e-01
1.939569784892446478e+02 1.808252390155927758e-01
1.944972486243121637e+02 1.911629146949397062e-01
1.950375187593797079e+02 2.015890698387953206e-01
1.955777888944472238e+02 2.120970622672482819e-01
1.961180590295147681e+02 2.226808267067781899e-01
1.966583291645823124e+02 2.333348023588719677e-01
1.971985992996498283e+02 2.440538702407829275e-01
1.977388694347173441e+02 2.548332988984934877e-01
1.982791395697849168e+02 2.656686972893761989e-01
1.988194097048524327e+02 2.765559738050087368e-01
1.993596798399199486e+02 2.874913005545492450e-01
1.998999499749875213e+02 2.984710821579191209e-01
2.004402201100550371e+02 3.094919284082927602e-01
2.009804902451225814e+02 3.205506302571581312e-01
2.015207603801900973e+02 3.316441386549318637e-01
2.020610305152576700e+02 3.427695458476188173e-01
2.026013006503251574e+02 3.539240687871461621e-01
2.031415707853927017e+02 3.651050343613643778e-01
2.036818409204602176e+02 3.763098661905471265e-01
2.042221110555277903e+02 3.875360727716959386e-01
2.047623811905953062e+02 3.987812367811786607e-01
2.053026513256628505e+02 4.100430053706510813e-01
2.058429214607303379e+02 4.213190813120600287e-01
2.063831915957979106e+02 4.326072148648020255e-01
2.069234617308654265e+02 4.439051962527066908e-01
2.074637318659329708e+02 4.552108486506523111e-01
2.080040020010005151e+02 4.665220215906698553e-01
2.085442721360680594e+02 4.778365847055254245e-01
2.090845422711355752e+02 4.891524217344184744e-01
2.096248124062030911e+02 5.004674247205773696e-01
2.101650825412706354e+02 5.117794883343402823e-01
2.107053526763381797e+02 5.230865042579907476e-01
2.112456228114056955e+02 5.343863555701573453e-01
2.117858929464732682e+02 5.456769110680175228e-01
2.123261630815407841e+02 5.569560194649646467e-01
2.128664332166083000e+02 5.682215033997447540e-01
2.134067033516758443e+02 5.794711531903421475e-01
2.139469734867433885e+02 5.907027202619763440e-01
2.144872436218109328e+02 6.019139101735850872e-01
2.150275137568784487e+02 6.131023751606639038e-01
