Theta (degrees)	Normalized Energy
0.000000000000000000e+00 2.910363897001290726e-16
1.799999999999999933e-01 1.012299040826077713e-06
3.599999999999999867e-01 4.049183310409751277e-06
5.400000000000000355e-01 9.110614256251861547e-06
7.199999999999999734e-01 1.619652762020965388e-05
9.000000000000001332e-01 2.530683343871503987e-05
1.080000000000000071e+00 3.644141603797251095e-05
1.260000000000000009e+00 4.960013403003014302e-05
1.439999999999999947e+00 6.478282030674058862e-05
1.619999999999999885e+00 8.198928203466793565e-05
1.800000000000000266e+00 1.012193006460656138e-04
1.980000000000000204e+00 1.224726318315276518e-04
2.160000000000000142e+00 1.457490055311848884e-04
2.339999999999999858e+00 1.710481259219721558e-04
2.520000000000000018e+00 1.983696714099884763e-04
2.700000000000000178e+00 2.277132946141263551e-04
2.879999999999999893e+00 2.590786223540664907e-04
3.060000000000000053e+00 2.924652556371811277e-04
3.239999999999999769e+00 3.278727696419449504e-04
3.420000000000000373e+00 3.653007137001821128e-04
3.600000000000000533e+00 4.047486112804766709e-04
3.780000000000000249e+00 4.462159599710019105e-04
3.960000000000000409e+00 4.897022314567466266e-04
4.140000000000000568e+00 5.352068714997243676e-04
4.320000000000000284e+00 5.827292999184556684e-04
4.500000000000000000e+00 6.322689105625025263e-04
4.679999999999999716e+00 6.838250712894031929e-04
4.860000000000001208e+00 7.373971239406621912e-04
5.040000000000000036e+00 7.929843843122098184e-04
5.220000000000000639e+00 8.505861421273361225e-04
5.400000000000000355e+00 9.102016610100605119e-04
5.580000000000000071e+00 9.718301784533366593e-04
5.759999999999999787e+00 1.035470905785291747e-03
5.940000000000000391e+00 1.101123028142523977e-03
6.120000000000000107e+00 1.168785704430158612e-03
6.300000000000000711e+00 1.238458067289395850e-03
6.479999999999999538e+00 1.310139223061496669e-03
6.659999999999999254e+00 1.383828251748491769e-03
6.840000000000000746e+00 1.459524206974911189e-03
7.020000000000001350e+00 1.537226115946310973e-03
7.200000000000001066e+00 1.616932979409037340e-03
7.379999999999999893e+00 1.698643771603952505e-03
7.560000000000000497e+00 1.782357440225761916e-03
7.740000000000000213e+00 1.868072906371282416e-03
7.920000000000000817e+00 1.955789064496587203e-03
8.100000000000001421e+00 2.045504782365129785e-03
8.280000000000001137e+00 2.137218900997610044e-03
8.459999999999999076e+00 2.230930234617117727e-03
8.640000000000000568e+00 2.326637570598269911e-03
8.820000000000000284e+00 2.424339669411408431e-03
9.000000000000000000e+00 2.524035264560460772e-03
9.179999999999999716e+00 2.625723062529245182e-03
9.359999999999999432e+00 2.729401742717370034e-03
9.540000000000000924e+00 2.835069957377514896e-03
9.720000000000002416e+00 2.942726331551038469e-03
9.900000000000002132e+00 3.052369463003152400e-03
1.008000000000000007e+01 3.163997922151176589e-03
1.026000000000000156e+01 3.277610251996732754e-03
1.044000000000000128e+01 3.393204968051817018e-03
1.062000000000000277e+01 3.510780558265315723e-03
1.080000000000000071e+01 3.630335482944206053e-03
1.098000000000000043e+01 3.751868174678105964e-03
1.116000000000000014e+01 3.875377038254944947e-03
1.133999999999999986e+01 4.000860450579620670e-03
1.151999999999999957e+01 4.128316760588288462e-03
1.170000000000000107e+01 4.257744289159375202e-03
1.188000000000000078e+01 4.389141329025034698e-03
1.206000000000000050e+01 4.522506144674230850e-03
1.224000000000000021e+01 4.657836972262878981e-03
1.242000000000000171e+01 4.795132019513222328e-03
1.260000000000000142e+01 4.934389465610293339e-03
1.278000000000000114e+01 5.075607461104492471e-03
1.295999999999999908e+01 5.218784127798517178e-03
1.313999999999999879e+01 5.363917558644774701e-03
1.331999999999999851e+01 5.511005817629545910e-03
1.350000000000000178e+01 5.660046939657302663e-03
1.368000000000000149e+01 5.811038930436398207e-03
1.386000000000000121e+01 5.963979766352763695e-03
1.404000000000000270e+01 6.118867394349340565e-03
1.422000000000000242e+01 6.275699731796499301e-03
1.440000000000000213e+01 6.434474666359254157e-03
1.458000000000000007e+01 6.595190055865859588e-03
1.475999999999999979e+01 6.757843728166147527e-03
1.493999999999999950e+01 6.922433480989576698e-03
1.512000000000000099e+01 7.088957081800948724e-03
1.529999999999999893e+01 7.257412267650018012e-03
1.548000000000000043e+01 7.427796745014910405e-03
1.566000000000000369e+01 7.600108189647149064e-03
1.584000000000000163e+01 7.774344246407801154e-03
1.602000000000000313e+01 7.950502529102022528e-03
1.620000000000000284e+01 8.128580620305306953e-03
1.638000000000000256e+01 8.308576071191198578e-03
1.656000000000000227e+01 8.490486401346114542e-03
1.674000000000000199e+01 8.674309098589337921e-03
1.691999999999999815e+01 8.860041618779269934e-03
1.710000000000000142e+01 9.047681385617402719e-03
1.728000000000000114e+01 9.237225790450352692e-03
1.746000000000000085e+01 9.428672192061404028e-03
1.764000000000000057e+01 9.622017916459208939e-03
1.782000000000000384e+01 9.817260256662213580e-03
1.800000000000000000e+01 1.001439647247040488e-02
1.818000000000000327e+01 1.021342379024186946e-02
1.835999999999999943e+01 1.041433940265196027e-02
1.853999999999999915e+01 1.061714046845443210e-02
1.871999999999999886e+01 1.082182411223056237e-02
1.890000000000000213e+01 1.102838742413588154e-02
1.908000000000000185e+01 1.123682745963518366e-02
1.926000000000000156e+01 1.144714123923244037e-02
1.944000000000000483e+01 1.165932574819752640e-02
1.962000000000000099e+01 1.187337793627618945e-02
1.980000000000000426e+01 1.208929471740048320e-02
1.998000000000000043e+01 1.230707296938673111e-02
2.016000000000000014e+01 1.252670953362689313e-02
2.033999999999999986e+01 1.274820121477045556e-02
2.052000000000000313e+01 1.297154478039672792e-02
2.069999999999999929e+01 1.319673696068094683e-02
2.088000000000000256e+01 1.342377444804707630e-02
2.105999999999999872e+01 1.365265389681484878e-02
2.124000000000000554e+01 1.388337192283168112e-02
2.141999999999999815e+01 1.411592510310057634e-02
2.160000000000000142e+01 1.435030997539319710e-02
2.178000000000000114e+01 1.458652303785122270e-02
2.196000000000000085e+01 1.482456074858019487e-02
2.214000000000000057e+01 1.506441952522971119e-02
2.232000000000000028e+01 1.530609574456020909e-02
2.250000000000000000e+01 1.554958574199870151e-02
2.267999999999999972e+01 1.579488581118294183e-02
2.285999999999999943e+01 1.604199220349008734e-02
2.303999999999999915e+01 1.629090112755205919e-02
2.322000000000000242e+01 1.654160874876025797e-02
2.340000000000000213e+01 1.679411118874941933e-02
2.358000000000000185e+01 1.704840452487273519e-02
2.376000000000000156e+01 1.730448478965738307e-02
2.394000000000000128e+01 1.756234797024523384e-02
2.412000000000000099e+01 1.782199000781828011e-02
2.430000000000000071e+01 1.808340679700607898e-02
2.448000000000000043e+01 1.834659418527449445e-02
2.466000000000000369e+01 1.861154797229766511e-02
2.484000000000000341e+01 1.887826390930918280e-02
2.502000000000000313e+01 1.914673769843811338e-02
2.520000000000000284e+01 1.941696499202221621e-02
2.538000000000000256e+01 1.968894139189468484e-02
2.556000000000000227e+01 1.996266244866143347e-02
2.574000000000000199e+01 2.023812366094593709e-02
2.591999999999999815e+01 2.051532047461804287e-02
2.610000000000000142e+01 2.079424828199072026e-02
2.627999999999999758e+01 2.107490242100173994e-02
2.646000000000000441e+01 2.135727817436325338e-02
2.663999999999999702e+01 2.164137076868754075e-02
2.682000000000000384e+01 2.192717537358557581e-02
2.700000000000000355e+01 2.221468710073536482e-02
2.718000000000000327e+01 2.250390100292471232e-02
2.736000000000000298e+01 2.279481207305850826e-02
2.753999999999999915e+01 2.308741524314154511e-02
2.772000000000000242e+01 2.338170538322214068e-02
2.789999999999999858e+01 2.367767730030539280e-02
2.808000000000000540e+01 2.397532573723277702e-02
2.825999999999999801e+01 2.427464537152126955e-02
2.844000000000000483e+01 2.457563081417213011e-02
2.862000000000000099e+01 2.487827660843131006e-02
2.880000000000000426e+01 2.518257722851842753e-02
2.898000000000000398e+01 2.548852707831084086e-02
2.916000000000000014e+01 2.579612048998159227e-02
2.933999999999999986e+01 2.610535172259582926e-02
2.951999999999999957e+01 2.641621496066223068e-02
2.970000000000000639e+01 2.672870431263031643e-02
2.987999999999999901e+01 2.704281380934314694e-02
3.006000000000000227e+01 2.735853740243533033e-02
3.024000000000000199e+01 2.767586896267772850e-02
3.042000000000000526e+01 2.799480227826654788e-02
3.059999999999999787e+01 2.831533105305092043e-02
3.078000000000000114e+01 2.863744890470693374e-02
3.096000000000000085e+01 2.896114936284038127e-02
3.114000000000000057e+01 2.928642586703156594e-02
3.132000000000000739e+01 2.961327176480662779e-02
3.150000000000000000e+01 2.994168030954181409e-02
3.168000000000000327e+01 3.027164465829399256e-02
3.186000000000000298e+01 3.060315786955183220e-02
3.204000000000000625e+01 3.093621290091390710e-02
3.221999999999999886e+01 3.127080260667557815e-02
3.240000000000000568e+01 3.160691973534024424e-02
3.258000000000000540e+01 3.194455692703162403e-02
3.276000000000000512e+01 3.228370671081910726e-02
3.293999999999999773e+01 3.262436150194594070e-02
3.312000000000000455e+01 3.296651359895377137e-02
3.330000000000000426e+01 3.331015518070432752e-02
3.348000000000000398e+01 3.365527830329177739e-02
3.365999999999999659e+01 3.400187489684178277e-02
3.383999999999999631e+01 3.434993676218840025e-02
3.402000000000000313e+01 3.469945556743427029e-02
3.420000000000000284e+01 3.505042284437350636e-02
3.437999999999999545e+01 3.540282998478853915e-02
3.456000000000000227e+01 3.575666823659936350e-02
3.474000000000000199e+01 3.611192869987294579e-02
3.492000000000000171e+01 3.646860232267704754e-02
3.510000000000000142e+01 3.682667989677410741e-02
3.528000000000000114e+01 3.718615205315276007e-02
3.546000000000000085e+01 3.754700925738003320e-02
3.564000000000000767e+01 3.790924180478269512e-02
3.582000000000000739e+01 3.827283981542851238e-02
3.600000000000000000e+01 3.863779322891729845e-02
3.617999999999999972e+01 3.900409179896167922e-02
3.636000000000000654e+01 3.937172508775944879e-02
3.654000000000000625e+01 3.974068246013123806e-02
3.671999999999999886e+01 4.011095307742940097e-02
3.689999999999999858e+01 4.048252589120027861e-02
3.707999999999999829e+01 4.085538963658529032e-02
3.726000000000000512e+01 4.122953282545904763e-02
3.743999999999999773e+01 4.160494373927798445e-02
3.762000000000000455e+01 4.198161042164359757e-02
3.780000000000000426e+01 4.235952067054755271e-02
3.798000000000000398e+01 4.273866203030261823e-02
3.816000000000000369e+01 4.311902178312876366e-02
3.834000000000000341e+01 4.350058694038898971e-02
3.852000000000000313e+01 4.388334423345156138e-02
3.870000000000000284e+01 4.426728010416593195e-02
3.888000000000000966e+01 4.465238069493133316e-02
3.906000000000000227e+01 4.503863183833132361e-02
3.924000000000000199e+01 4.542601904633460780e-02
3.942000000000000171e+01 4.581452749901097909e-02
3.960000000000000853e+01 4.620414203276260179e-02
3.978000000000000114e+01 4.659484712804218970e-02
3.996000000000000085e+01 4.698662689651694063e-02
4.014000000000000057e+01 4.737946506767613808e-02
4.032000000000000028e+01 4.777334497483357728e-02
4.050000000000000000e+01 4.816824954050395735e-02
4.067999999999999972e+01 4.856416126112406140e-02
4.086000000000000654e+01 4.896106219107599494e-02
4.104000000000000625e+01 4.935893392599146473e-02
4.121999999999999886e+01 4.975775758528159370e-02
4.139999999999999858e+01 5.015751379387699271e-02
4.157999999999999829e+01 5.055818266311264825e-02
4.176000000000000512e+01 5.095974377073256983e-02
4.193999999999999773e+01 5.136217613995906067e-02
4.211999999999999744e+01 5.176545821758371524e-02
4.229999999999999716e+01 5.216956785102494498e-02
4.248000000000001108e+01 5.257448226429804056e-02
4.266000000000001080e+01 5.298017803285139798e-02
4.283999999999999631e+01 5.338663105719332336e-02
4.302000000000000313e+01 5.379381653526002505e-02
4.320000000000000284e+01 5.420170893345150481e-02
4.338000000000000966e+01 5.461028195626798504e-02
4.356000000000000227e+01 5.501950851447268143e-02
4.374000000000000199e+01 5.542936069170259494e-02
4.392000000000000171e+01 5.583980970944794203e-02
4.410000000000000853e+01 5.625082589031014241e-02
4.428000000000000114e+01 5.666237861945314785e-02
4.446000000000000085e+01 5.707443630414542335e-02
4.464000000000000057e+01 5.748696633129863481e-02
4.482000000000000028e+01 5.789993502289655231e-02
4.500000000000000000e+01 5.831330758919573559e-02
4.517999999999999972e+01 5.872704807959065743e-02
4.535999999999999943e+01 5.914111933101876689e-02
4.553999999999999915e+01 5.955548291377053827e-02
4.571999999999999886e+01 5.997009907457811345e-02
4.589999999999999858e+01 6.038492667683379583e-02
4.607999999999999829e+01 6.079992313780019364e-02
4.626000000000000512e+01 6.121504436264783161e-02
4.644000000000000483e+01 6.163024467516630550e-02
4.662000000000000455e+01 6.204547674497966347e-02
4.680000000000000426e+01 6.246069151109109874e-02
4.698000000000000398e+01 6.287583810157747199e-02
4.716000000000000369e+01 6.329086374924783320e-02
4.734000000000000341e+01 6.370571370307044623e-02
4.752000000000000313e+01 6.412033113516928118e-02
4.770000000000000284e+01 6.453465704319580332e-02
4.788000000000000256e+01 6.494863014785301480e-02
4.806000000000000227e+01 6.536218678536985516e-02
4.824000000000000199e+01 6.577526079471611442e-02
4.842000000000000171e+01 6.618778339933086008e-02
4.860000000000000142e+01 6.659968308316016605e-02
4.878000000000000114e+01 6.701088546079227160e-02
4.896000000000000085e+01 6.742131314147857546e-02
4.914000000000000057e+01 6.783088558684853553e-02
4.932000000000000739e+01 6.823951896212838986e-02
4.950000000000000711e+01 6.864712598069468152e-02
4.968000000000000682e+01 6.905361574181284601e-02
4.986000000000000654e+01 6.945889356142982696e-02
5.004000000000000625e+01 6.986286079593803655e-02
5.022000000000000597e+01 7.026541465884658666e-02
5.040000000000000568e+01 7.066644803035750100e-02
5.058000000000000540e+01 7.106584925990687418e-02
5.076000000000000512e+01 7.146350196176837200e-02
5.094000000000000483e+01 7.185928480394862539e-02
5.112000000000000455e+01 7.225307129064084677e-02
5.130000000000000426e+01 7.264472953866364657e-02
5.148000000000000398e+01 7.303412204840964428e-02
5.166000000000000369e+01 7.342110546998387166e-02
5.183999999999999631e+01 7.380553036538978207e-02
5.202000000000000313e+01 7.418724096780578148e-02
5.220000000000000284e+01 7.456607493921774132e-02
5.238000000000000256e+01 7.494186312792368299e-02
5.255999999999999517e+01 7.531442932770518461e-02
5.274000000000000909e+01 7.568359004077025720e-02
5.292000000000000881e+01 7.604915424692046400e-02
5.310000000000000853e+01 7.641092318177547527e-02
5.327999999999999403e+01 7.676869012730416775e-02
5.346000000000000085e+01 7.712224021836665278e-02
5.364000000000000767e+01 7.747135026945094205e-02
5.382000000000000739e+01 7.781578862631102766e-02
5.400000000000000711e+01 7.815531504775324878e-02
5.417999999999999972e+01 7.848968062337439988e-02
5.436000000000000654e+01 7.881862773363193519e-02
5.454000000000000625e+01 7.914189005918888242e-02
5.472000000000000597e+01 7.945919264702570872e-02
5.489999999999999858e+01 7.977025204131871217e-02
5.507999999999999829e+01 8.007477648753023869e-02
5.526000000000000512e+01 8.037246621850131778e-02
5.544000000000000483e+01 8.066301383158874794e-02
5.561999999999999744e+01 8.094610476592498105e-02
5.579999999999999716e+01 8.122141788877004775e-02
5.598000000000001108e+01 8.148862619954008735e-02
5.616000000000001080e+01 8.174739765942008740e-02
5.633999999999999631e+01 8.199739615348222710e-02
5.651999999999999602e+01 8.223828259085211312e-02
5.670000000000000284e+01 8.246971614667958361e-02
5.688000000000000966e+01 8.269135564747912004e-02
5.706000000000000227e+01 8.290286109872413434e-02
5.724000000000000199e+01 8.310389535053058774e-02
5.742000000000000171e+01 8.329412589375655152e-02
5.760000000000000853e+01 8.347322677502701238e-02
5.778000000000000824e+01 8.364088061511609773e-02
5.796000000000000796e+01 8.379678071088846047e-02
5.814000000000000767e+01 8.394063319678371493e-02
5.832000000000000028e+01 8.407215923780603228e-02
5.850000000000000000e+01 8.419109722230207205e-02
5.867999999999999972e+01 8.429720491972828023e-02
5.885999999999999943e+01 8.439026156630237419e-02
5.903999999999999915e+01 8.447006984010507757e-02
5.922000000000001307e+01 8.453645768697960750e-02
5.940000000000001279e+01 8.458927995964035662e-02
5.958000000000001251e+01 8.462841983475880014e-02
5.975999999999999801e+01 8.465378997645803261e-02
5.994000000000000483e+01 8.466533341956448966e-02
6.012000000000000455e+01 8.466302415192206166e-02
6.030000000000000426e+01 8.464686738193066828e-02
6.048000000000000398e+01 8.461689948489545254e-02
6.066000000000000369e+01 8.457318762947352297e-02
6.084000000000001052e+01 8.451582909315706604e-02
6.102000000000001023e+01 8.444495028299553452e-02
6.119999999999999574e+01 8.436070548433992344e-02
6.138000000000000256e+01 8.426327536603515911e-02
6.156000000000000227e+01 8.415286527498909430e-02
6.174000000000000199e+01 8.402970335628488774e-02
6.192000000000000171e+01 8.389403853691851376e-02
6.210000000000000142e+01 8.374613841188456587e-02
6.228000000000000114e+01 8.358628707070719921e-02
6.246000000000001506e+01 8.341478290086881686e-02
6.264000000000001478e+01 8.323193640196570320e-02
6.281999999999999318e+01 8.303806804114913231e-02
6.300000000000000000e+01 8.283350617657718462e-02
6.318000000000000682e+01 8.261858507149426323e-02
6.336000000000000654e+01 8.239364301732260421e-02
6.354000000000000625e+01 8.215902057995480567e-02
6.372000000000000597e+01 8.191505897942814862e-02
6.390000000000000568e+01 8.166209860944137477e-02
6.408000000000001251e+01 8.140047769982636239e-02
6.425999999999999091e+01 8.113053112213343410e-02
6.443999999999999773e+01 8.085258933599724640e-02
6.462000000000000455e+01 8.056697747187843706e-02
6.480000000000001137e+01 8.027401454413485293e-02
6.498000000000000398e+01 7.997401278714239004e-02
6.516000000000001080e+01 7.966727710627959091e-02
6.534000000000000341e+01 7.935410463505281065e-02
6.552000000000001023e+01 7.903478438931656191e-02
6.570000000000001705e+01 7.870959700950946880e-02
6.587999999999999545e+01 7.837881458193086959e-02
6.606000000000000227e+01 7.804270053036811705e-02
6.624000000000000909e+01 7.770150956977409096e-02
6.642000000000000171e+01 7.735548771415044766e-02
6.660000000000000853e+01 7.700487233133407328e-02
6.678000000000000114e+01 7.664989223792183226e-02
6.696000000000000796e+01 7.629076782815107094e-02
6.714000000000000057e+01 7.592771123111800857e-02
6.731999999999999318e+01 7.556092649127030270e-02
6.750000000000000000e+01 7.519060976763992932e-02
6.767999999999999261e+01 7.481694954780483686e-02
6.785999999999999943e+01 7.444012687302310749e-02
6.804000000000000625e+01 7.406031557143465116e-02
6.822000000000001307e+01 7.367768249663038393e-02
6.840000000000000568e+01 7.329238776925536825e-02
6.858000000000001251e+01 7.290458501964591775e-02
6.875999999999999091e+01 7.251442162980381578e-02
6.893999999999999773e+01 7.212203897328051116e-02
6.912000000000000455e+01 7.172757265177842623e-02
6.929999999999999716e+01 7.133115272749539215e-02
6.948000000000000398e+01 7.093290395041443319e-02
6.966000000000001080e+01 7.053294597991296988e-02
6.984000000000000341e+01 7.013139360019869650e-02
7.002000000000001023e+01 6.972835692921082462e-02
7.020000000000000284e+01 6.932394162071529864e-02
7.037999999999999545e+01 6.891824905943454149e-02
7.056000000000000227e+01 6.851137654910562091e-02
7.073999999999999488e+01 6.810341749344206441e-02
7.092000000000000171e+01 6.769446157001965392e-02
7.110000000000000853e+01 6.728459489715520048e-02
7.128000000000001535e+01 6.687390019388184115e-02
7.146000000000000796e+01 6.646245693315670777e-02
7.164000000000001478e+01 6.605034148845470576e-02
