Theta (degrees)	Normalized Energy
0.000000000000000000e+00 3.417829580770149200e-01
3.600900225056264392e-01 3.418061561624254341e-01
7.201800450112528784e-01 3.418755912027737209e-01
1.080270067516879262e+00 3.419907904089974360e-01
1.440360090022505757e+00 3.421509816513633728e-01
1.800450112528132030e+00 3.423551160791345471e-01
2.160540135033758524e+00 3.426018976178034081e-01
2.520630157539384797e+00 3.428898174871459759e-01
2.880720180045011514e+00 3.432171917360029578e-01
3.240810202550637786e+00 3.435821998343250860e-01
3.600900225056264059e+00 3.439829225661936163e-01
3.960990247561890776e+00 3.444173777800997316e-01
4.321080270067517048e+00 3.448835529212760376e-01
4.681170292573143321e+00 3.453794336467298498e-01
5.041260315078769594e+00 3.459030281692431763e-01
5.401350337584394978e+00 3.464523872677785499e-01
5.761440360090023027e+00 3.470256201270267571e-01
6.121530382595649300e+00 3.476209063272474031e-01
6.481620405101275573e+00 3.482365044031976997e-01
6.841710427606901845e+00 3.488707574379646403e-01
7.201800450112528118e+00 3.495220961655799985e-01
7.561890472618154391e+00 3.501890400366472478e-01
7.921980495123781552e+00 3.508701966637578495e-01
8.282070517629406936e+00 3.515642600161764109e-01
8.642160540135034097e+00 3.522700076821936865e-01
9.002250562640659481e+00 3.529862974667967723e-01
9.362340585146286642e+00 3.537120635447529859e-01
9.722430607651912027e+00 3.544463123462923693e-01
1.008252063015753919e+01 3.551881183150690791e-01
1.044261065266316457e+01 3.559366196461106746e-01
1.080270067516878996e+01 3.566910140847525668e-01
1.116279069767441712e+01 3.574505548456915482e-01
1.152288072018004605e+01 3.582145466936031974e-01
1.188297074268566966e+01 3.589823422128179953e-01
1.224306076519129860e+01 3.597533382825901516e-01
1.260315078769692221e+01 3.605269727661237211e-01
1.296324081020255115e+01 3.613027214151963706e-01
1.332333083270817831e+01 3.620800949875824237e-01
1.368342085521380369e+01 3.628586365711380379e-01
1.404351087771943085e+01 3.636379191061286376e-01
1.440360090022505624e+01 3.644175430958856987e-01
1.476369092273068340e+01 3.651971344950193932e-01
1.512378094523630878e+01 3.659763427639817768e-01
1.548387096774193594e+01 3.667548390787345181e-01
1.584396099024756310e+01 3.675323146844256539e-01
1.620405101275318671e+01 3.683084793823552805e-01
1.656414103525881387e+01 3.690830601399632815e-01
1.692423105776444459e+01 3.698557998141334124e-01
1.728432108027006819e+01 3.706264559786683344e-01
1.764441110277569180e+01 3.713947998474169121e-01
1.800450112528131896e+01 3.721606152851238969e-01
1.836459114778694612e+01 3.729236978986650297e-01
1.872468117029257328e+01 3.736838542018879328e-01
1.908477119279819689e+01 3.744409008478408185e-01
1.944486121530382405e+01 3.751946639226546587e-01
1.980495123780945477e+01 3.759449782958434461e-01
2.016504126031507838e+01 3.766916870222168368e-01
2.052513128282070909e+01 3.774346407910126322e-01
2.088522130532632914e+01 3.781736974182520195e-01
2.124531132783195986e+01 3.789087213786400121e-01
2.160540135033757991e+01 3.796395833736834757e-01
2.196549137284320707e+01 3.803661599329745679e-01
2.232558139534883423e+01 3.810883330458663676e-01
2.268567141785446495e+01 3.818059898209939518e-01
2.304576144036009211e+01 3.825190221713547500e-01
2.340585146286571927e+01 3.832273265228082759e-01
2.376594148537133933e+01 3.839308035441046929e-01
2.412603150787697004e+01 3.846293578966715199e-01
2.448612153038259720e+01 3.853228980025573125e-01
2.484621155288822436e+01 3.860113358290830909e-01
2.520630157539384442e+01 3.866945866888514827e-01
2.556639159789947513e+01 3.873725690539110422e-01
2.592648162040510229e+01 3.880452043829473729e-01
2.628657164291072945e+01 3.887124169604897483e-01
2.664666166541635661e+01 3.893741337471998687e-01
2.700675168792198022e+01 3.900302842403837178e-01
2.736684171042760738e+01 3.906808003439554144e-01
2.772693173293323454e+01 3.913256162471195898e-01
2.808702175543886170e+01 3.919646683111378538e-01
2.844711177794448886e+01 3.925978949635536841e-01
2.880720180045011247e+01 3.932252365993358922e-01
2.916729182295573963e+01 3.938466354884301301e-01
2.952738184546136679e+01 3.944620356892462598e-01
2.988747186796699040e+01 3.950713829676593125e-01
3.024756189047261756e+01 3.956746247211190837e-01
3.060765191297824472e+01 3.962717099075154237e-01
3.096774193548387188e+01 3.968625889784506144e-01
3.132783195798949905e+01 3.974472138166241786e-01
3.168792198049512621e+01 3.980255376770287512e-01
3.204801200300074981e+01 3.985975151317104337e-01
3.240810202550637342e+01 3.991631020178338929e-01
3.276819204801200414e+01 3.997222553888394869e-01
3.312828207051762774e+01 4.002749334684823079e-01
3.348837209302325846e+01 4.008210956075535236e-01
3.384846211552888917e+01 4.013607022431152638e-01
3.420855213803451278e+01 4.018937148600795761e-01
3.456864216054013639e+01 4.024200959549764089e-01
3.492873218304576000e+01 4.029398090017788370e-01
3.528882220555138360e+01 4.034528184196383149e-01
3.564891222805700721e+01 4.039590895424242101e-01
3.600900225056263793e+01 4.044585885899393829e-01
3.636909227306826153e+01 4.049512826407217769e-01
3.672918229557389225e+01 4.054371396063199406e-01
3.708927231807951586e+01 4.059161282069591037e-01
3.744936234058514657e+01 4.063882179485132085e-01
3.780945236309077728e+01 4.068533791007002964e-01
3.816954238559639379e+01 4.073115826764275860e-01
3.852963240810202450e+01 4.077628004122244021e-01
3.888972243060764811e+01 4.082070047496896836e-01
3.924981245311327882e+01 4.086441688179027754e-01
3.960990247561890953e+01 4.090742664167323905e-01
3.996999249812453314e+01 4.094972720009991130e-01
4.033008252063015675e+01 4.099131606654472515e-01
4.069017254313578746e+01 4.103219081304660398e-01
4.105026256564141818e+01 4.107234907285247094e-01
4.141035258814704179e+01 4.111178853912937914e-01
4.177044261065265829e+01 4.115050696373908079e-01
4.213053263315829611e+01 4.118850215607409160e-01
4.249062265566391972e+01 4.122577198194994352e-01
4.285071267816953622e+01 4.126231436255209384e-01
4.321080270067515983e+01 4.129812727343335488e-01
4.357089272318079765e+01 4.133320874356042895e-01
4.393098274568641415e+01 4.136755685440571262e-01
4.429107276819205197e+01 4.140116973908352649e-01
4.465116279069766847e+01 4.143404558152667949e-01
4.501125281320330629e+01 4.146618261570306219e-01
4.537134283570892990e+01 4.149757912486953249e-01
4.573143285821454640e+01 4.152823344086060686e-01
4.609152288072018422e+01 4.155814394341175722e-01
4.645161290322580783e+01 4.158730905951464885e-01
4.681170292573143854e+01 4.161572726280217127e-01
4.717179294823706215e+01 4.164339707296398907e-01
4.753188297074267865e+01 4.167031705518892126e-01
4.789197299324831647e+01 4.169648581963444900e-01
4.825206301575394008e+01 4.172190202092124212e-01
4.861215303825957079e+01 4.174656435765222717e-01
4.897224306076519440e+01 4.177047157195467042e-01
4.933233308327082511e+01 4.179362244904480939e-01
4.969242310577644872e+01 4.181601581681338997e-01
5.005251312828207233e+01 4.183765054543187034e-01
5.041260315078768883e+01 4.185852554697819805e-01
5.077269317329332665e+01 4.187863977508156643e-01
5.113278319579895026e+01 4.189799222458494010e-01
5.149287321830456676e+01 4.191658193122512754e-01
5.185296324081020458e+01 4.193440797133026199e-01
5.221305326331582819e+01 4.195146946153227030e-01
5.257314328582145890e+01 4.196776555849615620e-01
5.293323330832708251e+01 4.198329545866377743e-01
5.329332333083271322e+01 4.199805839801234453e-01
5.365341335333833683e+01 4.201205365182701934e-01
5.401350337584396044e+01 4.202528053448769119e-01
5.437359339834959115e+01 4.203773839926835953e-01
5.473368342085521476e+01 4.204942663815008919e-01
5.509377344336084548e+01 4.206034468164635554e-01
5.545386346586646908e+01 4.207049199864055233e-01
5.581395348837209269e+01 4.207986809623598390e-01
5.617404351087772341e+01 4.208847251961689850e-01
5.653413353338334701e+01 4.209630485192142890e-01
5.689422355588897773e+01 4.210336471412614023e-01
5.725431357839460134e+01 4.210965176494056994e-01
5.761440360090022494e+01 4.211516570071413001e-01
5.797449362340585566e+01 4.211990625535205757e-01
5.833458364591147927e+01 4.212387320024338910e-01
5.869467366841710998e+01 4.212706634419829399e-01
5.905476369092273359e+01 4.212948553339666002e-01
5.941485371342836430e+01 4.213113065134588830e-01
5.977494373593398080e+01 4.213200161884983475e-01
6.013503375843961862e+01 4.213209839398726619e-01
6.049512378094523513e+01 4.213142097210054171e-01
6.085521380345086584e+01 4.212996938579434691e-01
6.121530382595648945e+01 4.212774370494442588e-01
6.157539384846211306e+01 4.212474403671677692e-01
6.193548387096774377e+01 4.212097052559607424e-01
6.229557389347336738e+01 4.211642335342530852e-01
6.265566391597899809e+01 4.211110273945460336e-01
6.301575393848460749e+01 4.210500894040147823e-01
6.337584396099025241e+01 4.209814225052021519e-01
6.373593398349586892e+01 4.209050300168283854e-01
6.409602400600149963e+01 4.208209156347025304e-01
6.445611402850711613e+01 4.207290834327414020e-01
6.481620405101274685e+01 4.206295378641030092e-01
6.517629407351837756e+01 4.205222837624280063e-01
6.553638409602400827e+01 4.204073263431954421e-01
6.589647411852962477e+01 4.202846712051996891e-01
6.625656414103525549e+01 4.201543243321387844e-01
6.661665416354088620e+01 4.200162920943332767e-01
6.697674418604651692e+01 4.198705812505695856e-01
6.733683420855213342e+01 4.197171989500617650e-01
6.769692423105777834e+01 4.195561527345619823e-01
6.805701425356338063e+01 4.193874505405905118e-01
6.841710427606902556e+01 4.192111007018231583e-01
6.877719429857464206e+01 4.190271119516073561e-01
6.913728432108027278e+01 4.188354934256418582e-01
6.949737434358588928e+01 4.186362546648013661e-01
6.985746436609151999e+01 4.184294056181271371e-01
7.021755438859715071e+01 4.182149566459865131e-01
7.057764441110276721e+01 4.179929185233943745e-01
7.093773443360839792e+01 4.177633024435258857e-01
7.129782445611401442e+01 4.175261200214114843e-01
7.165791447861965935e+01 4.172813832978218840e-01
7.201800450112527585e+01 4.170291047433614673e-01
7.237809452363090656e+01 4.167692972627710657e-01
7.273818454613652307e+01 4.165019741994450131e-01
7.309827456864215378e+01 4.162271493401878963e-01
7.345836459114778449e+01 4.159448369202027873e-01
7.381845461365341521e+01 4.156550516283322727e-01
7.417854463615903171e+01 4.153578086125678248e-01
7.453863465866467664e+01 4.150531234858255702e-01
7.489872468117029314e+01 4.147410123320192099e-01
7.525881470367592385e+01 4.144214917124284803e-01
7.561890472618155457e+01 4.140945786723869149e-01
7.597899474868718528e+01 4.137602907483077797e-01
7.633908477119278757e+01 4.134186459750570086e-01
7.669917479369843250e+01 4.130696628936888493e-01
7.705926481620404900e+01 4.127133605595793564e-01
7.741935483870966550e+01 4.123497585509645624e-01
7.777944486121529621e+01 4.119788769779063053e-01
7.813953488372092693e+01 4.116007364917110278e-01
7.849962490622655764e+01 4.112153582948311903e-01
7.885971492873217414e+01 4.108227641512690598e-01
7.921980495123781907e+01 4.104229763975086875e-01
7.957989497374342136e+01 4.100160179540202066e-01
7.993998499624906628e+01 4.096019123373522142e-01
8.030007501875468279e+01 4.091806836728491548e-01
8.066016504126031350e+01 4.087523567080479925e-01
8.102025506376593000e+01 4.083169568267678851e-01
8.138034508627157493e+01 4.078745100639465937e-01
8.174043510877720564e+01 4.074250431212806389e-01
8.210052513128283636e+01 4.069685833836877431e-01
8.246061515378843865e+01 4.065051589366688312e-01
8.282070517629408357e+01 4.060347985846167740e-01
8.318079519879968586e+01 4.055575318701248877e-01
8.354088522130531658e+01 4.050733890943618021e-01
8.390097524381096150e+01 4.045824013385777018e-01
8.426106526631659221e+01 4.040846004868260399e-01
8.462115528882219451e+01 4.035800192499626737e-01
8.498124531132783943e+01 4.030686911910085768e-01
8.534133533383347014e+01 4.025506507519751032e-01
8.570142535633907244e+01 4.020259332822448406e-01
8.606151537884471736e+01 4.014945750685975923e-01
8.642160540135031965e+01 4.009566133670152688e-01
8.678169542385595037e+01 4.004120864363664989e-01
8.714178544636159529e+01 3.998610335741138444e-01
8.750187546886722600e+01 3.993034951541700739e-01
8.786196549137282830e+01 3.987395126670655321e-01
8.822205551387845901e+01 3.981691287625809261e-01
8.858214553638410393e+01 3.975923872950176685e-01
8.894223555888973465e+01 3.970093333713079486e-01
8.930232558139533694e+01 3.964200134021475530e-01
8.966241560390098186e+01 3.958244751563968489e-01
9.002250562640661258e+01 3.952227678189602633e-01
9.038259564891224329e+01 3.946149420524323603e-01
9.074268567141785979e+01 3.940010500627601497e-01
9.110277569392349051e+01 3.933811456692524744e-01
9.146286571642909280e+01 3.927552843792459503e-01
9.182295573893473772e+01 3.921235234677917791e-01
9.218304576144036844e+01 3.914859220627463499e-01
9.254313578394597073e+01 3.908425412357040551e-01
9.290322580645161565e+01 3.901934440991940978e-01
9.326331582895724637e+01 3.895386959106830194e-01
9.362340585146287708e+01 3.888783641838881033e-01
9.398349587396849358e+01 3.882125188080117750e-01
9.434358589647412430e+01 3.875412321755370426e-01
9.470367591897972659e+01 3.868645793192793669e-01
9.506376594148535730e+01 3.861826380594648445e-01
9.542385596399100223e+01 3.854954891616741985e-01
9.578394598649663294e+01 3.848032165065439214e-01
9.614403600900223523e+01 3.841059072722591283e-01
9.650412603150788016e+01 3.834036521308851753e-01
9.686421605401351087e+01 3.826965454597611727e-01
9.722430607651914158e+01 3.819846855692461962e-01
9.758439609902475809e+01 3.812681749482468296e-01
9.794448612153038880e+01 3.805471205290952841e-01
9.830457614403601951e+01 3.798216339734921121e-01
9.866466616654165023e+01 3.790918319813804116e-01
9.902475618904726673e+01 3.783578366248246394e-01
9.938484621155289744e+01 3.776197757091519502e-01
9.974493623405851395e+01 3.768777831638118747e-01
1.001050262565641447e+02 3.761319994656981969e-01
1.004651162790697754e+02 3.753825720978903324e-01
1.008252063015753777e+02 3.746296560470804282e-01
1.011852963240810226e+02 3.738734143432781987e-01
1.015453863465866533e+02 3.731140186456918251e-01
1.019054763690922840e+02 3.723516498790935825e-01
1.022655663915979005e+02 3.715864989253593320e-01
1.026256564141035312e+02 3.708187673753097768e-01
1.029857464366091335e+02 3.700486683464569992e-01
1.033458364591147784e+02 3.692764273727555113e-01
1.037059264816204092e+02 3.685022833729927894e-01
1.040660165041260399e+02 3.677264897050087078e-01
1.044261065266316564e+02 3.669493153135329755e-01
1.047861965491372871e+02 3.661710459800039397e-01
1.051462865716429178e+02 3.653919856833656721e-01
1.055063765941485485e+02 3.646124580814051885e-01
1.058664666166541650e+02 3.638328081227607536e-01
1.062265566391597957e+02 3.630534038002272146e-01
1.065866466616654264e+02 3.622746380563651725e-01
1.069467366841710572e+02 3.614969308526411740e-01
1.073068267066766737e+02 3.607207314133485387e-01
1.076669167291822760e+02 3.599465206552291408e-01
1.080270067516879209e+02 3.591748138129606804e-01
1.083870967741935516e+02 3.584061632693960053e-01
1.087471867966991823e+02 3.576411615973205116e-01
1.091072768192047988e+02 3.568804448164942245e-01
1.094673668417104295e+02 3.561246958654306627e-01
1.098274568642160602e+02 3.553746482815076657e-01
1.101875468867216910e+02 3.546310900751811213e-01
1.105476369092273075e+02 3.538948677738274484e-01
1.109077269317329382e+02 3.531668905975660078e-01
1.112678169542385547e+02 3.524481347127190189e-01
1.116279069767441854e+02 3.517396474878257684e-01
1.119879969992498161e+02 3.510425516516398337e-01
1.123480870217554468e+02 3.503580492219497411e-01
1.127081770442610633e+02 3.496874250379196081e-01
1.130682670667666940e+02 3.490320496870797928e-01
1.134283570892723247e+02 3.483933815715527516e-01
1.137884471117779555e+02 3.477729678079948816e-01
1.141485371342835720e+02 3.471724436043603368e-01
1.145086271567892027e+02 3.465935297078914790e-01
1.148687171792948334e+02 3.460380274781384990e-01
1.152288072018004499e+02 3.455078111138660812e-01
1.155888972243060806e+02 3.450048165628215036e-01
1.159489872468117113e+02 3.445310266794978649e-01
1.163090772693173278e+02 3.440884522800091161e-01
1.166691672918229585e+02 3.436791088855886134e-01
1.170292573143285892e+02 3.433049891545818522e-01
1.173893473368342200e+02 3.429680312781330787e-01
1.177494373593398080e+02 3.426700839484781436e-01
1.181095273818454672e+02 3.424128688801060250e-01
1.184696174043510979e+02 3.421979422385704739e-01
1.188297074268567286e+02 3.420266566632612637e-01
1.191897974493623167e+02 3.419001258059289339e-01
1.195498874718679616e+02 3.418191933949586980e-01
1.199099774943735923e+02 3.417844087379238727e-01
1.202700675168792372e+02 3.417960102767685915e-01
1.206301575393848395e+02 3.418539183270391524e-01
1.209902475618904703e+02 3.419577375126126584e-01
1.213503375843961010e+02 3.421067687236235555e-01
1.217104276069017317e+02 3.423000297631240141e-01
1.220705176294073482e+02 3.425362832887781095e-01
1.224306076519129789e+02 3.428140702612863522e-01
1.227906976744186096e+02 3.431317469134682607e-01
1.231507876969242261e+02 3.434875232528595834e-01
1.235108777194298568e+02 3.438795012784119920e-01
1.238709677419354875e+02 3.443057113821202941e-01
1.242310577644411183e+02 3.447641457658121023e-01
1.245911477869467348e+02 3.452527880813773264e-01
1.249512378094523655e+02 3.457696388586877223e-01
1.253113278319579962e+02 3.463127365917781919e-01
1.256714178544636269e+02 3.468801745960823357e-01
1.260315078769692150e+02 3.474701139243045467e-01
1.263915978994748741e+02 3.480807927404842017e-01
1.267516879219805048e+02 3.487105326104331104e-01
1.271117779444861355e+02 3.493577421834305752e-01
1.274718679669917378e+02 3.500209187263416122e-01
1.278319579894973685e+02 3.506986479374892829e-01
1.281920480120029993e+02 3.513896024221630499e-01
1.285521380345086584e+02 3.520925391610132404e-01
1.289122280570142323e+02 3.528062962514738610e-01
1.292723180795198630e+02 3.535297891537955706e-01
1.296324081020254937e+02 3.542620066291113923e-01
1.299924981245311244e+02 3.550020065180783391e-01
1.303525881470367551e+02 3.557489114752731552e-01
1.307126781695423858e+02 3.565019047465682878e-01
1.310727681920480165e+02 3.572602260536368868e-01
1.314328582145536188e+02 3.580231676311205202e-01
1.317929482370592495e+02 3.587900704471064239e-01
1.321530382595648803e+02 3.595603206259452844e-01
1.325131282820705110e+02 3.603333460834497459e-01
1.328732183045761417e+02 3.611086133777244855e-01
1.332333083270817724e+02 3.618856247738551080e-01
1.335933983495874031e+02 3.626639155170423012e-01
1.339534883720930338e+02 3.634430513062524848e-01
1.343135783945986361e+02 3.642226259587766912e-01
1.346736684171042668e+02 3.650022592550964950e-01
1.350337584396098976e+02 3.657815949529127364e-01
1.353938484621155567e+02 3.665602989590923677e-01
1.357539384846211306e+02 3.673380576483609716e-01
1.361140285071267613e+02 3.681145763179284325e-01
1.364741185296323920e+02 3.688895777676572396e-01
1.368342085521380511e+02 3.696628009959121441e-01
1.371942985746436534e+02 3.704340000018197521e-01
1.375543885971492841e+02 3.712029426852456182e-01
1.379144786196549148e+02 3.719694098364298984e-01
1.382745686421605456e+02 3.727331942077755089e-01
1.386346586646661478e+02 3.734940996608948072e-01
1.389947486871717786e+02 3.742519403825504409e-01
1.393548387096774093e+02 3.750065401636310525e-01
1.397149287321830400e+02 3.757577317358123392e-01
1.400750187546886707e+02 3.765053561609999488e-01
1.404351087771943014e+02 3.772492622690351571e-01
1.407951987996999321e+02 3.779893061396175646e-01
1.411552888222055344e+02 3.787253506246278101e-01
1.415153788447111651e+02 3.794572649074986481e-01
1.418754688672167958e+02 3.801849240964744192e-01
1.422355588897224550e+02 3.809082088489316176e-01
1.425956489122280288e+02 3.816270050241735157e-01
1.429557389347336880e+02 3.823412033623124762e-01
1.433158289572393187e+02 3.830506991871122646e-01
