Theta (degrees)	Normalized Energy
0.000000000000000000e+00 0.000000000000000000e+00
3.601800900450224940e-01 2.918042507886248389e-04
7.203601800900449881e-01 1.165213259782995042e-03
1.080540270135067704e+00 2.614276972694696069e-03
1.440720360180089976e+00 4.629278227838456126e-03
1.800900450225112692e+00 7.197017556891721971e-03
2.161080540270135408e+00 1.030118456699653275e-02
2.521260630315157236e+00 1.392279251717196652e-02
2.881440720360179952e+00 1.804065084784753706e-02
3.241620810405202668e+00 2.263185098767304948e-02
3.601800900450225384e+00 2.767224332357511377e-02
3.961980990495247656e+00 3.313688715939960144e-02
4.322161080540270817e+00 3.900046013163199071e-02
4.682341170585292645e+00 4.523761828504985899e-02
5.042521260630314472e+00 5.182330236373005466e-02
5.402701350675338077e+00 5.873298953868383993e-02
5.762881440720359905e+00 6.594289262918542893e-02
6.123061530765382621e+00 7.343011086778379604e-02
6.483241620810405337e+00 8.117273748661874011e-02
6.843421710855427165e+00 8.914992999298983201e-02
7.203601800900450769e+00 9.734194910207759344e-02
7.563781890945473485e+00 1.057301720457975991e-01
7.923961980990495313e+00 1.142970855044878470e-01
8.284142071035518029e+00 1.230262628117539808e-01
8.644322161080541633e+00 1.319023294391203638e-01
9.004502251125561685e+00 1.409109201282741086e-01
9.364682341170585289e+00 1.500386304394977499e-01
9.724862431215608893e+00 1.592729649450594087e-01
1.008504252126062894e+01 1.686022838239717991e-01
1.044522261130565255e+01 1.780157492123865537e-01
1.080540270135067615e+01 1.875032723277811342e-01
1.116558279139569620e+01 1.970554621098336567e-01
1.152576288144071981e+01 2.066635758988627503e-01
1.188594297148574341e+01 2.163194724966322757e-01
1.224612306153076524e+01 2.260155678171203719e-01
1.260630315157578885e+01 2.357447932291350523e-01
1.296648324162081067e+01 2.455005566136972406e-01
1.332666333166583250e+01 2.552767061001819382e-01
1.368684342171085433e+01 2.650674964038947645e-01
1.404702351175587793e+01 2.748675576587163993e-01
1.440720360180090154e+01 2.846718666198999603e-01
1.476738369184592337e+01 2.944757201011283243e-01
1.512756378189094697e+01 3.042747105048828615e-01
1.548774387193596880e+01 3.140647033043091341e-01
1.584792396198099063e+01 3.238418163369558567e-01
1.620810405202601245e+01 3.336024007754891940e-01
1.656828414207103606e+01 3.433430236459522056e-01
1.692846423211605966e+01 3.530604517716470214e-01
1.728864432216108327e+01 3.627516370273294322e-01
1.764882441220610332e+01 3.724137027967253100e-01
1.800900450225112337e+01 3.820439315333456487e-01
1.836918459229614697e+01 3.916397533324263991e-01
1.872936468234117058e+01 4.011987354287994134e-01
1.908954477238619418e+01 4.107185725420937072e-01
1.944972486243121779e+01 4.201970779975990888e-01
1.980990495247624139e+01 4.296321755565490896e-01
2.017008504252125789e+01 4.390218918955242078e-01
2.053026513256628505e+01 4.483643496797928285e-01
2.089044522261130510e+01 4.576577611800863310e-01
2.125062531265632870e+01 4.669004223868363779e-01
2.161080540270135231e+01 4.760907075797515819e-01
2.197098549274637591e+01 4.852270643145578655e-01
2.233116558279139241e+01 4.943080087917905430e-01
2.269134567283641601e+01 5.033321215760007128e-01
2.305152576288143962e+01 5.122980436359624301e-01
2.341170585292646322e+01 5.212044726798183980e-01
2.377188594297148683e+01 5.300501597606286364e-01
2.413206603301650688e+01 5.388339061304620037e-01
2.449224612306153048e+01 5.475545603228233471e-01
2.485242621310655409e+01 5.562110154451207489e-01
2.521260630315157769e+01 5.648022066642899297e-01
2.557278639319660130e+01 5.733271088703286722e-01
2.593296648324162135e+01 5.817847345036961659e-01
2.629314657328664140e+01 5.901741315337787341e-01
2.665332666333166500e+01 5.984943815766338160e-01
2.701350675337668861e+01 6.067445981413396305e-01
2.737368684342170866e+01 6.149239249951905517e-01
2.773386693346673226e+01 6.230315346384538433e-01
2.809404702351175587e+01 6.310666268808120538e-01
2.845422711355677947e+01 6.390284275115689638e-01
2.881440720360180308e+01 6.469161870568164163e-01
2.917458729364682313e+01 6.547291796172430844e-01
2.953476738369184673e+01 6.624667017804808378e-01
2.989494747373687034e+01 6.701280716028111817e-01
3.025512756378189394e+01 6.777126276551264095e-01
3.061530765382691754e+01 6.852197281286211972e-01
3.097548774387193760e+01 6.926487499959861349e-01
3.133566783391696120e+01 6.999990882241463597e-01
3.169584792396198125e+01 7.072701550351215838e-01
3.205602801400700486e+01 7.144613792114983264e-01
3.241620810405202491e+01 7.215722054435852462e-01
3.277638819409705206e+01 7.286020937154122912e-01
3.313656828414207212e+01 7.355505187268912559e-01
3.349674837418709217e+01 7.424169693497922884e-01
3.385692846423211932e+01 7.492009481152794859e-01
3.421710855427713938e+01 7.559019707308839431e-01
3.457728864432216653e+01 7.625195656250912668e-01
3.493746873436718658e+01 7.690532735176562884e-01
3.529764882441220664e+01 7.755026470140530259e-01
3.565782891445722669e+01 7.818672502225406662e-01
3.601800900450224674e+01 7.881466583923453229e-01
3.637818909454726679e+01 7.943404575716852545e-01
3.673836918459229395e+01 8.004482442844770285e-01
3.709854927463732110e+01 8.064696252243827024e-01
3.745872936468234116e+01 8.124042169653360457e-01
3.781890945472736831e+01 8.182516456874789901e-01
3.817908954477238836e+01 8.240115469174782437e-01
3.853926963481740842e+01 8.296835652825845786e-01
3.889944972486243557e+01 8.352673542773810800e-01
3.925962981490745562e+01 8.407625760427133166e-01
3.961980990495248278e+01 8.461689011558388707e-01
3.997998999499749573e+01 8.514860084313975452e-01
4.034017008504251578e+01 8.567135847324582887e-01
4.070035017508754294e+01 8.618513247910067898e-01
4.106053026513257009e+01 8.668989310375194712e-01
4.142071035517759015e+01 8.718561134389515299e-01
4.178089044522261020e+01 8.767225893448490348e-01
4.214107053526763735e+01 8.814980833408901928e-01
4.250125062531265741e+01 8.861823271097488686e-01
4.286143071535768456e+01 8.907750592986278804e-01
4.322161080540270461e+01 8.952760253933653711e-01
4.358179089544772467e+01 8.996849775984667730e-01
4.394197098549275182e+01 9.040016747229931982e-01
4.430215107553776477e+01 9.082258820719847359e-01
4.466233116558278482e+01 9.123573713429875554e-01
4.502251125562781198e+01 9.163959205275203912e-01
4.538269134567283203e+01 9.203413138173485164e-01
4.574287143571785919e+01 9.241933415150554998e-01
4.610305152576287924e+01 9.279517999490072278e-01
4.646323161580789929e+01 9.316164913922613255e-01
4.682341170585292645e+01 9.351872239853500357e-01
4.718359179589794650e+01 9.386638116627566975e-01
4.754377188594297365e+01 9.420460740828707769e-01
4.790395197598799371e+01 9.453338365612808936e-01
4.826413206603301376e+01 9.485269300072924903e-01
4.862431215607804091e+01 9.516251908634463241e-01
4.898449224612306097e+01 9.546284610479972565e-01
4.934467233616808812e+01 9.575365879001758174e-01
4.970485242621310817e+01 9.603494241281234078e-01
5.006503251625812823e+01 9.630668277593875670e-01
5.042521260630315538e+01 9.656886620939300059e-01
5.078539269634817543e+01 9.682147956594588933e-01
5.114557278639320259e+01 9.706451021690106762e-01
5.150575287643822264e+01 9.729794604808295055e-01
5.186593296648324269e+01 9.752177545602257469e-01
5.222611305652826985e+01 9.773598734435938740e-01
5.258629314657328280e+01 9.794057112043109692e-01
5.294647323661830285e+01 9.813551669205982098e-01
5.330665332666333001e+01 9.832081446451259588e-01
5.366683341670835006e+01 9.849645533765617467e-01
5.402701350675337721e+01 9.866243070326317088e-01
5.438719359679839727e+01 9.881873244251094812e-01
5.474737368684341732e+01 9.896535292361944292e-01
5.510755377688844447e+01 9.910228499966059479e-01
5.546773386693346453e+01 9.922952200653056831e-01
5.582791395697849168e+01 9.934705776104436614e-01
5.618809404702351173e+01 9.945488655921476129e-01
5.654827413706853179e+01 9.955300317464891302e-01
5.690845422711355894e+01 9.964140285709478517e-01
5.726863431715857899e+01 9.972008133113212658e-01
5.762881440720360615e+01 9.978903479498987261e-01
5.798899449724862620e+01 9.984825991950986301e-01
5.834917458729364625e+01 9.989775384723178497e-01
5.870935467733865920e+01 9.993751419162303362e-01
5.906953476738369346e+01 9.996753903641903971e-01
5.942971485742870641e+01 9.998782693511591990e-01
5.978989494747374067e+01 9.999837691057019695e-01
6.015007503751875362e+01 9.999918845474227158e-01
6.051025512756378788e+01 9.999026152855357008e-01
6.087043521760880083e+01 9.997159656187825094e-01
6.123061530765383509e+01 9.994319445365964505e-01
6.159079539769884803e+01 9.990505657215387192e-01
6.195097548774387519e+01 9.985718475529490323e-01
6.231115557778889524e+01 9.979958131119998077e-01
6.267133566783392240e+01 9.973224901878954274e-01
6.303151575787893535e+01 9.965519112854606121e-01
6.339169584792396250e+01 9.956841136340357501e-01
6.375187593796898256e+01 9.947191391976123453e-01
6.411205602801400971e+01 9.936570346864528336e-01
6.447223611805902976e+01 9.924978515699479642e-01
6.483241620810404982e+01 9.912416460909276861e-01
6.519259629814906987e+01 9.898884792813894551e-01
6.555277638819410413e+01 9.884384169795625841e-01
6.591295647823912418e+01 9.868915298486897747e-01
6.627313656828414423e+01 9.852478933969456287e-01
6.663331665832916428e+01 9.835075879992791759e-01
6.699349674837418434e+01 9.816706989205499223e-01
6.735367683841920439e+01 9.797373163404794472e-01
6.771385692846423865e+01 9.777075353800843693e-01
6.807403701850924449e+01 9.755814561300243382e-01
6.843421710855427875e+01 9.733591836805981501e-01
6.879439719859929880e+01 9.710408281536114794e-01
6.915457728864433307e+01 9.686265047361046765e-01
6.951475737868933891e+01 9.661163337160837417e-01
6.987493746873437317e+01 9.635104405202298272e-01
7.023511755877939322e+01 9.608089557537509151e-01
7.059529764882441327e+01 9.580120152423434732e-01
7.095547773886943332e+01 9.551197600765276574e-01
7.131565782891445338e+01 9.521323366582287173e-01
7.167583791895947343e+01 9.490498967498269822e-01
7.203601800900449348e+01 9.458725975258823748e-01
7.239619809904952774e+01 9.426006016272844290e-01
7.275637818909453358e+01 9.392340772184296638e-01
7.311655827913956784e+01 9.357731980471044597e-01
7.347673836918458790e+01 9.322181435074973210e-01
7.383691845922962216e+01 9.285690987064066926e-01
7.419709854927464221e+01 9.248262545325881545e-01
7.455727863931966226e+01 9.209898077298364072e-01
7.491745872936468231e+01 9.170599609734746416e-01
7.527763881940970236e+01 9.130369229508241702e-01
7.563781890945473663e+01 9.089209084455645016e-01
7.599799899949974247e+01 9.047121384264070754e-01
7.635817908954477673e+01 9.004108401400953143e-01
7.671835917958979678e+01 8.960172472091347817e-01
7.707853926963481683e+01 8.915315997343915555e-01
7.743871935967983688e+01 8.869541444028310462e-01
7.779889944972487115e+01 8.822851346006842510e-01
7.815907953976987699e+01 8.775248305323775089e-01
7.851925962981491125e+01 8.726734993454825506e-01
7.887943971985993130e+01 8.677314152619907128e-01
7.923961980990496556e+01 8.626988597163837147e-01
7.959979989994997140e+01 8.575761215007893234e-01
7.995997998999499146e+01 8.523634969176161480e-01
8.032016008004002572e+01 8.470612899401985807e-01
8.068034017008503156e+01 8.416698123817730748e-01
8.104052026013006582e+01 8.361893840734409000e-01
8.140070035017508587e+01 8.306203330514733141e-01
8.176088044022012014e+01 8.249629957547198744e-01
8.212106053026514019e+01 8.192177172324961454e-01
8.248124062031016024e+01 8.133848513638091138e-01
8.284142071035518029e+01 8.074647610884922999e-01
8.320160080040021455e+01 8.014578186510099567e-01
8.356178089044522039e+01 7.953644058577554743e-01
8.392196098049024044e+01 7.891849143486702189e-01
8.428214107053527471e+01 7.829197458841076207e-01
8.464232116058028055e+01 7.765693126479280561e-01
8.500250125062531481e+01 7.701340375678188410e-01
8.536268134067033486e+01 7.636143546541683813e-01
8.572286143071536912e+01 7.570107093583163804e-01
8.608304152076037496e+01 7.503235589520530491e-01
8.644322161080540923e+01 7.435533729291625704e-01
8.680340170085042928e+01 7.367006334310542970e-01
8.716358179089544933e+01 7.297658356977239080e-01
8.752376188094046938e+01 7.227494885460674645e-01
8.788394197098550364e+01 7.156521148772962970e-01
8.824412206103050949e+01 7.084742522155638156e-01
8.860430215107552954e+01 7.012164532799384231e-01
8.896448224112056380e+01 6.938792865923278930e-01
8.932466233116556964e+01 6.864633371235538961e-01
8.968484242121060390e+01 6.789692069807177210e-01
9.004502251125562395e+01 6.713975161387911728e-01
9.040520260130065822e+01 6.637489032195262872e-01
9.076538269134566406e+01 6.560240263214073275e-01
9.112556278139069832e+01 6.482235639044608977e-01
9.148574287143571837e+01 6.403482157340290026e-01
9.184592296148073842e+01 6.323987038880327649e-01
9.220610305152575847e+01 6.243757738326294326e-01
9.256628314157076431e+01 6.162801955716613600e-01
9.292646323161579858e+01 6.081127648756020632e-01
9.328664332166081863e+01 5.998743045963825793e-01
9.364682341170585289e+01 5.915656660748055407e-01
9.400700350175085873e+01 5.831877306482815548e-01
9.436718359179589299e+01 5.747414112668003394e-01
9.472736368184091305e+01 5.662276542260961110e-01
9.508754377188594731e+01 5.576474410277334481e-01
9.544772386193095315e+01 5.490017903766727381e-01
9.580790395197598741e+01 5.402917603277631597e-01
9.616808404202102167e+01 5.315184505941089599e-01
9.652826413206602751e+01 5.226830050305806274e-01
9.688844422211106178e+01 5.137866143081509795e-01
9.724862431215608183e+01 5.048305187952064621e-01
9.760880440220111609e+01 4.958160116640422110e-01
9.796898449224612193e+01 4.867444422423761186e-01
9.832916458229115619e+01 4.776172196316343932e-01
9.868934467233617625e+01 4.684358166156378234e-01
9.904952476238119630e+01 4.592017738861131071e-01
9.940970485242621635e+01 4.499167046132531711e-01
9.976988494247125061e+01 4.405822993930462728e-01
1.001300650325162565e+02 4.312003316055205149e-01
1.004902451225612907e+02 4.217726632218662952e-01
1.008504252126063108e+02 4.123012511016507786e-01
1.012106053026513166e+02 4.027881538255314031e-01
1.015707853926963509e+02 3.932355391131125977e-01
1.019309654827413709e+02 3.836456918805022931e-01
1.022911455727864052e+02 3.740210229967415034e-01
1.026513256628314110e+02 3.643640788044875123e-01
1.030115057528764453e+02 3.546775514756832504e-01
1.033716858429214653e+02 3.449642902795615473e-01
1.037318659329664854e+02 3.352273138470617808e-01
1.040920460230115054e+02 3.254698235227736491e-01
1.044522261130565397e+02 3.156952179028291727e-01
1.048124062031015455e+02 3.059071086649875482e-01
1.051725862931465656e+02 2.961093378044061253e-01
1.055327663831915999e+02 2.863059963961790411e-01
1.058929464732366057e+02 2.765014450129418266e-01
1.062531265632816400e+02 2.667003359313694921e-01
1.066133066533266600e+02 2.569076372667963848e-01
1.069734867433716943e+02 2.471286591773646235e-01
1.073336668334167001e+02 2.373690822792332566e-01
1.076938469234617344e+02 2.276349884098473608e-01
1.080540270135067544e+02 2.179328938665562321e-01
1.084142071035517745e+02 2.082697852305358810e-01
1.087743871935967945e+02 1.986531578591934910e-01
1.091345672836418004e+02 1.890910570908397315e-01
1.094947473736868346e+02 1.795921221499349740e-01
1.098549274637318547e+02 1.701656326658179397e-01
1.102151075537768889e+02 1.608215576169931271e-01
1.105752876438218948e+02 1.515706063815737414e-01
1.109354677338669291e+02 1.424242814052820716e-01
1.112956478239119491e+02 1.333949317846305771e-01
1.116558279139569834e+02 1.244958067970629023e-01
1.120160080040019892e+02 1.157411080843025603e-01
1.123761880940470235e+02 1.071460388041895334e-01
1.127363681840920293e+02 9.872684760598650355e-02
1.130965482741370636e+02 9.050086475486386617e-02
1.134567283641820836e+02 8.248652714109022677e-02
1.138169084542271179e+02 7.470338827534325765e-02
1.141770885442721237e+02 6.717210872528699139e-02
1.145372686343171580e+02 5.991442184014020983e-02
1.148974487243621780e+02 5.295306911014942275e-02
1.152576288144072123e+02 4.631169921426947500e-02
1.156178089044522181e+02 4.001472484110627642e-02
1.159779889944972524e+02 3.408713186695382091e-02
1.163381690845422867e+02 2.855423658605843809e-02
1.166983491745872925e+02 2.344138854666199742e-02
1.170585292646323126e+02 1.877361923941182204e-02
1.174187093546773184e+02 1.457524041852379694e-02
1.177788894447223811e+02 1.086940009011680072e-02
1.181390695347673869e+02 7.677608902314054899e-03
1.184992496248124070e+02 5.019254368446740902e-03
1.188594297148574128e+02 2.911124458445631460e-03
1.192196098049024613e+02 1.366964931027913862e-03
1.195797898949474813e+02 3.970957133824656003e-04
1.199399699849925014e+02 8.110201520848309728e-06
1.203001500750375072e+02 2.026773927135212187e-04
1.206603301650825557e+02 9.794605066847730541e-04
1.210205102551275758e+02 2.333157837209542344e-03
1.213806903451725816e+02 4.254662942709239865e-03
1.217408704352176017e+02 6.731333014811905976e-03
1.221010505252626075e+02 9.747347366870464519e-03
1.224612306153076702e+02 1.328413321219932934e-02
1.228214107053526760e+02 1.732083362456200357e-02
1.231815907953976961e+02 2.183479275771807449e-02
1.235417708854427019e+02 2.680203566900586296e-02
1.239019509754877504e+02 3.219772384913225510e-02
1.242621310655327704e+02 3.799657213118184246e-02
1.246223111555777905e+02 4.417321740854725926e-02
1.249824912456227963e+02 5.070253403322603353e-02
1.253426713356678448e+02 5.755989456043426183e-02
1.257028514257128649e+02 6.472137748350735575e-02
1.260630315157578707e+02 7.216392573296134816e-02
1.264232116058028907e+02 7.986546106084144170e-02
1.267833916958479250e+02 8.780496011796640188e-02
1.271435717858929593e+02 9.596249820319636969e-02
1.275037518759379651e+02 1.043192664638264433e-01
1.278639319659829852e+02 1.128575678834810997e-01
1.282241120560280194e+02 1.215607968123073312e-01
1.285842921460730395e+02 1.304134061542381595e-01
1.289444722361180595e+02 1.394008656834496152e-01
1.293046523261630796e+02 1.485096143549777536e-01
1.296648324162080996e+02 1.577270089233702433e-01
1.300250125062531197e+02 1.670412706998146424e-01
1.303851925962981397e+02 1.764414318643044433e-01
1.307453726863431598e+02 1.859172824024930837e-01
1.311055527763882083e+02 1.954593184522852300e-01
1.314657328664331999e+02 2.050586926144420119e-01
1.318259129564782484e+02 2.147071665986680089e-01
1.321860930465232684e+02 2.243970664331009501e-01
1.325462731365682885e+02 2.341212403549364218e-01
1.329064532266133085e+02 2.438730194163522547e-01
1.332666333166583286e+02 2.536461807787485645e-01
1.336268134067033770e+02 2.634349136234234168e-01
1.339869934967483687e+02 2.732337875766692736e-01
1.343471735867933887e+02 2.830377235267552694e-01
1.347073536768384088e+02 2.928419666983513858e-01
1.350675337668834572e+02 3.026420618438762644e-01
1.354277138569284773e+02 3.124338304098143171e-01
1.357878939469734973e+02 3.222133495381854784e-01
1.361480740370184890e+02 3.319769327666483583e-01
1.365082541270635375e+02 3.417211122977619198e-01
1.368684342171085575e+02 3.514426227133317093e-01
1.372286143071535776e+02 3.611383860178658534e-01
1.375887943971985976e+02 3.708054979026936815e-01
1.379489744872436461e+02 3.804412151295304967e-01
1.383091545772886661e+02 3.900429439399936138e-01
1.386693346673336578e+02 3.996082294047046957e-01
1.390295147573786778e+02 4.091347456325755139e-01
1.393896948474236979e+02 4.186202867669961969e-01
1.397498749374687463e+02 4.280627587022866054e-01
1.401100550275137664e+02 4.374601714588659540e-01
1.404702351175587864e+02 4.468106321612784759e-01
1.408304152076037781e+02 4.561123385676142394e-01
1.411905952976488265e+02 4.653635731039678092e-01
1.415507753876938466e+02 4.745626973607678933e-01
1.419109554777388666e+02 4.837081470125877969e-01
1.422711355677838867e+02 4.927984271255625992e-01
1.426313156578289068e+02 5.018321078201797292e-01
1.429914957478739552e+02 5.108078202600108142e-01
1.433516758379189469e+02 5.197242529394044963e-01
