Theta (degrees)	Normalized Energy
0.000000000000000000e+00 0.000000000000000000e+00
3.601800900450224940e-01 8.823409345656836697e-05
7.203601800900449881e-01 3.529057137923231912e-04
1.080540270135067704e+00 7.939228922640280363e-04
1.440720360180089976e+00 1.411132379228181898e-03
1.800900450225112692e+00 2.204319695842299736e-03
2.161080540270135408e+00 3.173209202216598253e-03
2.521260630315157236e+00 4.317464184757825382e-03
2.881440720360179952e+00 5.636686967405347796e-03
3.241620810405202668e+00 7.130419038534290162e-03
3.601800900450225384e+00 8.798141197834173297e-03
3.961980990495247656e+00 1.063927372864651236e-02
4.322161080540270817e+00 1.265317657970264908e-02
4.682341170585292645e+00 1.483914957467060390e-02
5.042521260630314472e+00 1.719643263580228343e-02
5.402701350675338077e+00 1.972420603656472801e-02
5.762881440720359905e+00 2.242159065897148321e-02
6.123061530765382621e+00 2.528764828224808886e-02
6.483241620810405337e+00 2.832138188559788286e-02
6.843421710855427165e+00 3.152173597172670122e-02
7.203601800900450769e+00 3.488759691034304389e-02
7.563781890945473485e+00 3.841779329615024191e-02
7.923961980990495313e+00 4.211109633229766919e-02
8.284142071035518029e+00 4.596622022989057393e-02
8.644322161080541633e+00 4.998182262238370227e-02
9.004502251125561685e+00 5.415650500856727251e-02
9.364682341170585289e+00 5.848881319790296546e-02
9.724862431215608893e+00 6.297723779776934205e-02
1.008504252126062894e+01 6.762021469639881155e-02
1.044522261130565255e+01 7.241612557714864618e-02
1.080540270135067615e+01 7.736329844608907935e-02
1.116558279139569620e+01 8.246000817995856325e-02
1.152576288144071981e+01 8.770447709096100553e-02
1.188594297148574341e+01 9.309487550958024660e-02
1.224612306153076524e+01 9.862932238580328359e-02
1.260630315157578885e+01 1.043058859044438264e-01
1.296648324162081067e+01 1.101225841235747294e-01
1.332666333166583250e+01 1.160773856262775072e-01
1.368684342171085433e+01 1.221682101904088963e-01
1.404702351175587793e+01 1.283929294732511217e-01
1.440720360180090154e+01 1.347493677180961191e-01
1.476738369184592337e+01 1.412353024706214932e-01
1.512756378189094697e+01 1.478484653195505649e-01
1.548774387193596880e+01 1.545865426455376723e-01
1.584792396198099063e+01 1.614471763880702959e-01
1.620810405202601245e+01 1.684279648378305405e-01
1.656828414207103606e+01 1.755264634263145329e-01
1.692846423211605966e+01 1.827401855487444937e-01
1.728864432216108327e+01 1.900666033916809383e-01
1.764882441220610332e+01 1.975031487770852467e-01
1.800900450225112337e+01 2.050472140259659293e-01
1.836918459229614697e+01 2.126961528302503124e-01
1.872936468234117058e+01 2.204472811430648882e-01
1.908954477238619418e+01 2.282978780811576458e-01
1.944972486243121779e+01 2.362451868429874258e-01
1.980990495247624139e+01 2.442864156366053308e-01
2.017008504252125789e+01 2.524187386259446608e-01
2.053026513256628505e+01 2.606392968861197534e-01
2.089044522261130510e+01 2.689451993716496792e-01
2.125062531265632870e+01 2.773335239015246034e-01
2.161080540270135231e+01 2.858013181489717502e-01
2.197098549274637591e+01 2.943456006523720858e-01
2.233116558279139241e+01 3.029633618281356022e-01
2.269134567283641601e+01 3.116515649996348669e-01
2.305152576288143962e+01 3.204071474402392372e-01
2.341170585292646322e+01 3.292270214233993242e-01
2.377188594297148683e+01 3.381080752793896860e-01
2.413206603301650688e+01 3.470471744704604622e-01
2.449224612306153048e+01 3.560411626667723262e-01
2.485242621310655409e+01 3.650868628434821850e-01
2.521260630315157769e+01 3.741810783707780752e-01
2.557278639319660130e+01 3.833205941285904306e-01
2.593296648324162135e+01 3.925021776177779476e-01
2.629314657328664140e+01 4.017225800869800856e-01
2.665332666333166500e+01 4.109785376618205199e-01
2.701350675337668861e+01 4.202667724874267208e-01
2.737368684342170866e+01 4.295839938674250735e-01
2.773386693346673226e+01 4.389268994225192788e-01
2.809404702351175587e+01 4.482921762447609204e-01
2.845422711355677947e+01 4.576765020631779479e-01
2.881440720360180308e+01 4.670765464129290057e-01
2.917458729364682313e+01 4.764889718060237866e-01
2.953476738369184673e+01 4.859104349165357939e-01
2.989494747373687034e+01 4.953375877591565946e-01
3.025512756378189394e+01 5.047670788736250413e-01
3.061530765382691754e+01 5.141955545181651210e-01
3.097548774387193760e+01 5.236196598644906608e-01
3.133566783391696120e+01 5.330360401845846141e-01
3.169584792396198125e+01 5.424413420558873433e-01
3.205602801400700486e+01 5.518322145551257663e-01
3.241620810405202491e+01 5.612053104611522958e-01
3.277638819409705206e+01 5.705572874542568229e-01
3.313656828414207212e+01 5.798848093154804761e-01
3.349674837418709217e+01 5.891845471329787420e-01
3.385692846423211932e+01 5.984531804946755518e-01
3.421710855427713938e+01 6.076873986911018877e-01
3.457728864432216653e+01 6.168839019151001191e-01
3.493746873436718658e+01 6.260394024529121193e-01
3.529764882441220664e+01 6.351506258799670679e-01
3.565782891445722669e+01 6.442143122523606991e-01
3.601800900450224674e+01 6.532272172893267559e-01
3.637818909454726679e+01 6.621861135631491591e-01
3.673836918459229395e+01 6.710877916702751023e-01
3.709854927463732110e+01 6.799290614118267406e-01
3.745872936468234116e+01 6.887067529600140459e-01
3.781890945472736831e+01 6.974177180221967642e-01
3.817908954477238836e+01 7.060588309963294895e-01
3.853926963481740842e+01 7.146269901248404333e-01
3.889944972486243557e+01 7.231191186359764433e-01
3.925962981490745562e+01 7.315321658792725001e-01
3.961980990495248278e+01 7.398631084567132143e-01
3.997998999499749573e+01 7.481089513409687752e-01
4.034017008504251578e+01 7.562667289834474893e-01
4.070035017508754294e+01 7.643335064215647234e-01
4.106053026513257009e+01 7.723063803636864844e-01
4.142071035517759015e+01 7.801824802779898649e-01
4.178089044522261020e+01 7.879589694562555424e-01
4.214107053526763735e+01 7.956330460780530744e-01
4.250125062531265741e+01 8.032019442561247891e-01
4.286143071535768456e+01 8.106629350743281837e-01
4.322161080540270461e+01 8.180133276079527560e-01
4.358179089544772467e+01 8.252504699369869190e-01
4.394197098549275182e+01 8.323717501417592368e-01
4.430215107553776477e+01 8.393745972856545556e-01
4.466233116558278482e+01 8.462564823864709984e-01
4.502251125562781198e+01 8.530149193681938469e-01
4.538269134567283203e+01 8.596474659998439849e-01
4.574287143571785919e+01 8.661517248206167530e-01
4.610305152576287924e+01 8.725253440481802736e-01
4.646323161580789929e+01 8.787660184697383414e-01
4.682341170585292645e+01 8.848714903127279374e-01
4.718359179589794650e+01 8.908395501100313529e-01
4.754377188594297365e+01 8.966680375354224575e-01
4.790395197598799371e+01 9.023548422249119128e-01
4.826413206603301376e+01 9.078979045824252525e-01
4.862431215607804091e+01 9.132952165674643741e-01
4.898449224612306097e+01 9.185448224588762534e-01
4.934467233616808812e+01 9.236448196021713741e-01
4.970485242621310817e+01 9.285933591392170339e-01
5.006503251625812823e+01 9.333886467132542775e-01
5.042521260630315538e+01 9.380289431582492510e-01
5.078539269634817543e+01 9.425125651670919202e-01
5.114557278639320259e+01 9.468378859308127504e-01
5.150575287643822264e+01 9.510033357723146619e-01
5.186593296648324269e+01 9.550074027432879920e-01
5.222611305652826985e+01 9.588486332081999075e-01
5.258629314657328280e+01 9.625256324032164246e-01
5.294647323661830285e+01 9.660370649708407420e-01
5.330665332666333001e+01 9.693816554792762386e-01
5.366683341670835006e+01 9.725581889108465550e-01
5.402701350675337721e+01 9.755655111296576143e-01
5.438719359679839727e+01 9.784025293312418325e-01
5.474737368684341732e+01 9.810682124596932230e-01
5.510755377688844447e+01 9.835615916075695075e-01
5.546773386693346453e+01 9.858817603946427033e-01
5.582791395697849168e+01 9.880278753110076639e-01
5.618809404702351173e+01 9.899991560492240605e-01
5.654827413706853179e+01 9.917948858023815095e-01
5.690845422711355894e+01 9.934144115457150814e-01
5.726863431715857899e+01 9.948571442849285518e-01
5.762881440720360615e+01 9.961225592876742363e-01
5.798899449724862620e+01 9.972101962837006672e-01
5.834917458729364625e+01 9.981196596489393391e-01
5.870935467733865920e+01 9.988506185500345413e-01
5.906953476738369346e+01 9.994028070818206100e-01
5.942971485742870641e+01 9.997760243628918131e-01
5.978989494747374067e+01 9.999701346202036767e-01
6.015007503751875362e+01 9.999850672345083069e-01
6.051025512756378788e+01 9.998208167748211528e-01
6.087043521760880083e+01 9.994774429945048055e-01
6.123061530765383509e+01 9.989550708112929778e-01
6.159079539769884803e+01 9.982538902610731402e-01
6.195097548774387519e+01 9.973741564183761232e-01
6.231115557778889524e+01 9.963161893004149894e-01
6.267133566783392240e+01 9.950803737464494203e-01
6.303151575787893535e+01 9.936671592618980808e-01
6.339169584792396250e+01 9.920770598491343017e-01
6.375187593796898256e+01 9.903106538089065936e-01
6.411205602801400971e+01 9.883685835088575899e-01
6.447223611805902976e+01 9.862515551453849838e-01
6.483241620810404982e+01 9.839603384632011895e-01
6.519259629814906987e+01 9.814957664584426089e-01
6.555277638819410413e+01 9.788587350586701596e-01
6.591295647823912418e+01 9.760502027766271294e-01
6.627313656828414423e+01 9.730711903334470225e-01
6.663331665832916428e+01 9.699227802728518366e-01
6.699349674837418434e+01 9.666061165393166066e-01
6.735367683841920439e+01 9.631224040350839788e-01
6.771385692846423865e+01 9.594729081572023199e-01
6.807403701850924449e+01 9.556589543098885642e-01
6.843421710855427875e+01 9.516819273933907475e-01
6.879439719859929880e+01 9.475432712677833713e-01
6.915457728864433307e+01 9.432444882038363287e-01
6.951475737868933891e+01 9.387871382998097536e-01
6.987493746873437317e+01 9.341728388817965856e-01
7.023511755877939322e+01 9.294032638872249397e-01
7.059529764882441327e+01 9.244801432189829749e-01
7.095547773886943332e+01 9.194052620795692965e-01
7.131565782891445338e+01 9.141804602942766866e-01
7.167583791895947343e+01 9.088076316014737088e-01
7.203601800900449348e+01 9.032887229287875908e-01
7.239619809904952774e+01 8.976257336508768336e-01
7.275637818909453358e+01 8.918207148225294478e-01
7.311655827913956784e+01 8.858757684035352131e-01
7.347673836918458790e+01 8.797930464490902880e-01
7.383691845922962216e+01 8.735747502955027999e-01
7.419709854927464221e+01 8.672231297223965685e-01
7.455727863931966226e+01 8.607404820949398072e-01
7.491745872936468231e+01 8.541291514974573840e-01
7.527763881940970236e+01 8.473915278396253470e-01
7.563781890945473663e+01 8.405300459532646373e-01
7.599799899949974247e+01 8.335471846719023636e-01
7.635817908954477673e+01 8.264454658954484279e-01
7.671835917958979678e+01 8.192274536321547673e-01
7.707853926963481683e+01 8.118957530394005362e-01
7.743871935967983688e+01 8.044530094401922682e-01
7.779889944972487115e+01 7.969019073275229736e-01
7.815907953976987699e+01 7.892451693561967074e-01
7.851925962981491125e+01 7.814855553236872421e-01
7.887943971985993130e+01 7.736258611341535474e-01
7.923961980990496556e+01 7.656689177542309599e-01
7.959979989994997140e+01 7.576175901523715117e-01
7.995997998999499146e+01 7.494747762366176236e-01
8.032016008004002572e+01 7.412434057645665986e-01
8.068034017008503156e+01 7.329264392631276159e-01
8.104052026013006582e+01 7.245268669255607863e-01
8.140070035017508587e+01 7.160477074963746968e-01
8.176088044022012014e+01 7.074920071640570240e-01
8.212106053026514019e+01 6.988628384248221082e-01
8.248124062031016024e+01 6.901632989514486782e-01
8.284142071035518029e+01 6.813965104515442572e-01
8.320160080040021455e+01 6.725656175156239369e-01
8.356178089044522039e+01 6.636737864632327177e-01
8.392196098049024044e+01 6.547242041800579448e-01
8.428214107053527471e+01 6.457200769491671100e-01
8.464232116058028055e+01 6.366646292763703530e-01
8.500250125062531481e+01 6.275611027144082366e-01
8.536268134067033486e+01 6.184127546812639986e-01
8.572286143071536912e+01 6.092228572682926169e-01
8.608304152076037496e+01 5.999946960585326172e-01
8.644322161080540923e+01 5.907315689270022929e-01
8.680340170085042928e+01 5.814367848496109215e-01
8.716358179089544933e+01 5.721136627014965503e-01
8.752376188094046938e+01 5.627655300643709113e-01
8.788394197098550364e+01 5.533957220213312489e-01
8.824412206103050949e+01 5.440075799598980133e-01
8.860430215107552954e+01 5.346044503656506297e-01
8.896448224112056380e+01 5.251896836303572291e-01
8.932466233116556964e+01 5.157666328420859037e-01
8.968484242121060390e+01 5.063386525937253468e-01
9.004502251125562395e+01 4.969090977813218624e-01
9.040520260130065822e+01 4.874813224098578091e-01
9.076538269134566406e+01 4.780586784033392100e-01
9.112556278139069832e+01 4.686445144074408709e-01
9.148574287143571837e+01 4.592421746089939139e-01
9.184592296148073842e+01 4.498549975488146391e-01
9.220610305152575847e+01 4.404863149443255521e-01
9.256628314157076431e+01 4.311394505149176992e-01
9.292646323161579858e+01 4.218177188084886176e-01
9.328664332166081863e+01 4.125244240405132601e-01
9.364682341170585289e+01 4.032628589331154756e-01
9.400700350175085873e+01 3.940363035635394140e-01
9.436718359179589299e+01 3.848480242141877339e-01
9.472736368184091305e+01 3.757012722351935063e-01
9.508754377188594731e+01 3.665992829148255749e-01
9.544772386193095315e+01 3.575452743451936755e-01
9.580790395197598741e+01 3.485424463145878615e-01
9.616808404202102167e+01 3.395939791951175235e-01
9.652826413206602751e+01 3.307030328385758833e-01
9.688844422211106178e+01 3.218727454911044505e-01
9.724862431215608183e+01 3.131062327074666252e-01
9.760880440220111609e+01 3.044065862798124300e-01
9.796898449224612193e+01 2.957768731750606839e-01
9.832916458229115619e+01 2.872201344832481795e-01
9.868934467233617625e+01 2.787393843752784539e-01
9.904952476238119630e+01 2.703376090692882761e-01
9.940970485242621635e+01 2.620177658209057459e-01
9.976988494247125061e+01 2.537827819037167809e-01
1.001300650325162565e+02 2.456355536202824430e-01
1.004902451225612907e+02 2.375789453155058850e-01
1.008504252126063108e+02 2.296157884095836876e-01
1.012106053026513166e+02 2.217488804333068442e-01
1.015707853926963509e+02 2.139809840849040967e-01
1.019309654827413709e+02 2.063148262974605907e-01
1.022911455727864052e+02 1.987530973208283813e-01
1.026513256628314110e+02 1.912984498156790336e-01
1.030115057528764453e+02 1.839534979593065445e-01
1.033716858429214653e+02 1.767208165733640257e-01
1.037318659329664854e+02 1.696029402582589773e-01
1.040920460230115054e+02 1.626023625455655930e-01
1.044522261130565397e+02 1.557215350645375362e-01
1.048124062031015455e+02 1.489628667274210394e-01
1.051725862931465656e+02 1.423287229206432469e-01
1.055327663831915999e+02 1.358214247265512598e-01
1.058929464732366057e+02 1.294432481431929127e-01
1.062531265632816400e+02 1.231964233350397175e-01
1.066133066533266600e+02 1.170831338942854294e-01
1.069734867433716943e+02 1.111055161131112440e-01
1.073336668334167001e+02 1.052656582829768345e-01
1.076938469234617344e+02 9.956560000174487224e-02
1.080540270135067544e+02 9.400733150352275080e-02
1.084142071035517745e+02 8.859279300103796440e-02
1.087743871935967945e+02 8.332387404994741342e-02
1.091345672836418004e+02 7.820241292489693574e-02
1.094947473736868346e+02 7.323019601790638211e-02
1.098549274637318547e+02 6.840895725398854488e-02
1.102151075537768889e+02 6.374037751812661190e-02
1.105752876438218948e+02 5.922608411280237684e-02
1.109354677338669291e+02 5.486765021787459728e-02
1.112956478239119491e+02 5.066659438335804899e-02
1.116558279139569834e+02 4.662438003042787549e-02
1.120160080040019892e+02 4.274241497631613845e-02
1.123761880940470235e+02 3.902205097213372331e-02
1.127363681840920293e+02 3.546458326693454483e-02
1.130965482741370636e+02 3.207125018548843964e-02
1.134567283641820836e+02 2.884323272367945307e-02
1.138169084542271179e+02 2.578165416740478208e-02
1.141770885442721237e+02 2.288757972557398795e-02
1.145372686343171580e+02 2.016201619130895614e-02
1.148974487243621780e+02 1.760591160392720178e-02
1.152576288144072123e+02 1.522015495244285511e-02
1.156178089044522181e+02 1.300557588298442181e-02
1.159779889944972524e+02 1.096294443127982660e-02
1.163381690845422867e+02 9.092970772375223373e-03
1.166983491745872925e+02 7.396304993854368841e-03
1.170585292646323126e+02 5.873536882375022389e-03
1.174187093546773184e+02 4.525195736447628660e-03
1.177788894447223811e+02 3.351750193314377221e-03
1.181390695347673869e+02 2.353608076978767633e-03
1.184992496248124070e+02 1.531116270519117858e-03
1.188594297148574128e+02 8.845605970189498492e-04
1.192196098049024613e+02 4.141657373149529916e-04
1.195797898949474813e+02 1.200951489199776758e-04
1.199399699849925014e+02 2.451016280137136003e-06
1.203001500750375072e+02 6.127421826566936940e-05
1.206603301650825557e+02 2.965443152456171934e-04
1.210205102551275758e+02 7.081795553546500407e-04
1.213806903451725816e+02 1.296036899168674823e-03
1.217408704352176017e+02 2.059912068664381153e-03
1.221010505252626075e+02 2.999539611062488221e-03
1.224612306153076702e+02 4.114592984996544647e-03
1.228214107053526760e+02 5.404684668223928325e-03
1.231815907953976961e+02 6.869366275520431137e-03
1.235417708854427019e+02 8.508128713784098018e-03
1.239019509754877504e+02 1.032040233753074229e-02
1.242621310655327704e+02 1.230555713729027806e-02
1.246223111555777905e+02 1.446290294288675102e-02
1.249824912456227963e+02 1.679168964434380254e-02
1.253426713356678448e+02 1.929110743785743612e-02
1.257028514257128649e+02 2.196028708508575289e-02
1.260630315157578707e+02 2.479830019515594924e-02
1.264232116058028907e+02 2.780415952429672252e-02
1.267833916958479250e+02 3.097681930053797564e-02
1.271435717858929593e+02 3.431517555546070852e-02
1.275037518759379651e+02 3.781806648806432941e-02
1.278639319659829852e+02 4.148427283960098161e-02
1.282241120560280194e+02 4.531251829073531384e-02
1.285842921460730395e+02 4.930146987515478252e-02
1.289444722361180595e+02 5.344973841511370394e-02
1.293046523261630796e+02 5.775587897186112984e-02
1.296648324162080996e+02 6.221839131721913080e-02
1.300250125062531197e+02 6.683572042631170940e-02
1.303851925962981397e+02 7.160625697812716961e-02
1.307453726863431598e+02 7.652833788741460197e-02
1.311055527763882083e+02 8.160024684833068476e-02
1.314657328664331999e+02 8.682021489375356393e-02
1.318259129564782484e+02 9.218642097653050038e-02
1.321860930465232684e+02 9.769699256639273466e-02
1.325462731365682885e+02 1.033500062676290382e-01
1.329064532266133085e+02 1.091434884457679194e-01
1.332666333166583286e+02 1.150754158855939041e-01
1.336268134067033770e+02 1.211437164495555302e-01
1.339869934967483687e+02 1.273462697694657531e-01
1.343471735867933887e+02 1.336809079378107890e-01
1.347073536768384088e+02 1.401454162366597700e-01
1.350675337668834572e+02 1.467375338583492561e-01
1.354277138569284773e+02 1.534549546684687849e-01
1.357878939469734973e+02 1.602953279582712276e-01
1.361480740370184890e+02 1.672562592374257084e-01
1.365082541270635375e+02 1.743353110255954352e-01
1.368684342171085575e+02 1.815300036659496796e-01
1.372286143071535776e+02 1.888378161547341616e-01
1.375887943971985976e+02 1.962561869829836381e-01
1.379489744872436461e+02 2.037825149935097724e-01
1.383091545772886661e+02 2.114141602562977784e-01
1.386693346673336578e+02 2.191484449505615717e-01
1.390295147573786778e+02 2.269826542706912809e-01
1.393896948474236979e+02 2.349140373361172929e-01
1.397498749374687463e+02 2.429398081223251293e-01
1.401100550275137664e+02 2.510571463997035568e-01
1.404702351175587864e+02 2.592631986931517862e-01
1.408304152076037781e+02 2.675550792420781088e-01
1.411905952976488265e+02 2.759298709858577503e-01
1.415507753876938466e+02 2.843846265524238581e-01
1.419109554777388666e+02 2.929163692652675954e-01
1.422711355677838867e+02 3.015220941567047785e-01
1.426313156578289068e+02 3.101987689928930036e-01
1.429914957478739552e+02 3.189433353199991328e-01
1.433516758379189469e+02 3.277527095009665770e-01
