Theta (degrees)	Normalized Energy
0.000000000000000000e+00 2.926924136579136526e-01
3.600900225056264392e-01 2.926650988340021020e-01
7.201800450112528784e-01 2.925833138067348016e-01
1.080270067516879262e+00 2.924475320509528631e-01
1.440360090022505757e+00 2.922585268394350955e-01
1.800450112528132030e+00 2.920173486233493820e-01
2.160540135033758524e+00 2.917252955351909982e-01
2.520630157539384797e+00 2.913838788709477989e-01
2.880720180045011514e+00 2.909947855555876095e-01
3.240810202550637786e+00 2.905598395513310228e-01
3.600900225056264059e+00 2.900809639650057670e-01
3.960990247561890776e+00 2.895601452981888535e-01
4.321080270067517048e+00 2.889994009153557530e-01
4.681170292573143321e+00 2.884007504293829016e-01
5.041260315078769594e+00 2.877661913581353592e-01
5.401350337584394978e+00 2.870976791147173413e-01
5.761440360090023027e+00 2.863971111686353654e-01
6.121530382595649300e+00 2.856663150567301801e-01
6.481620405101275573e+00 2.849070398250958536e-01
6.841710427606901845e+00 2.841209504361523752e-01
7.201800450112528118e+00 2.833096246670139262e-01
7.561890472618154391e+00 2.824745520449171154e-01
7.921980495123781552e+00 2.816171344029388401e-01
8.282070517629406936e+00 2.807386876865195502e-01
8.642160540135034097e+00 2.798404446924156463e-01
9.002250562640659481e+00 2.789235584724123473e-01
9.362340585146286642e+00 2.779891061817176268e-01
9.722430607651912027e+00 2.770380931948599468e-01
1.008252063015753919e+01 2.760714573494041368e-01
1.044261065266316457e+01 2.750900732097928403e-01
1.080270067516878996e+01 2.740947562703014428e-01
1.116279069767441712e+01 2.730862670380176938e-01
1.152288072018004605e+01 2.720653149543552640e-01
1.188297074268566966e+01 2.710325621276590824e-01
1.224306076519129860e+01 2.699886268603478578e-01
1.260315078769692221e+01 2.689340869624511909e-01
1.296324081020255115e+01 2.678694828496968605e-01
1.332333083270817831e+01 2.667953204289661984e-01
1.368342085521380369e+01 2.657120737772581398e-01
1.404351087771943085e+01 2.646201876225935945e-01
1.440360090022505624e+01 2.635200796367774267e-01
1.476369092273068340e+01 2.624121425508130212e-01
1.512378094523630878e+01 2.612967461041748596e-01
1.548387096774193594e+01 2.601742388392085936e-01
1.584396099024756310e+01 2.590449497517550714e-01
1.620405101275318671e+01 2.579091898087444434e-01
1.656414103525881387e+01 2.567672533430295223e-01
1.692423105776444459e+01 2.556194193351957189e-01
1.728432108027006819e+01 2.544659525914917397e-01
1.764441110277569180e+01 2.533071048264293190e-01
1.800450112528131896e+01 2.521431156579990729e-01
1.836459114778694612e+01 2.509742135228595350e-01
1.872468117029257328e+01 2.498006165182946325e-01
1.908477119279819689e+01 2.486225331771917957e-01
1.944486121530382405e+01 2.474401631817874370e-01
1.980495123780945477e+01 2.462536980214519722e-01
2.016504126031507838e+01 2.450633215993437142e-01
2.052513128282070909e+01 2.438692107923468300e-01
2.088522130532632914e+01 2.426715359683421502e-01
2.124531132783195986e+01 2.414704614644997138e-01
2.160540135033757991e+01 2.402661460299704010e-01
2.196549137284320707e+01 2.390587432360685716e-01
2.232558139534883423e+01 2.378484018567566527e-01
2.268567141785446495e+01 2.366352662220196634e-01
2.304576144036009211e+01 2.354194765464815708e-01
2.340585146286571927e+01 2.342011692354256103e-01
2.376594148537133933e+01 2.329804771701967925e-01
2.412603150787697004e+01 2.317575299747972051e-01
2.448612153038259720e+01 2.305324542653409692e-01
2.484621155288822436e+01 2.293053738838971567e-01
2.520630157539384442e+01 2.280764101181319281e-01
2.556639159789947513e+01 2.268456819080439668e-01
2.592648162040510229e+01 2.256133060410003277e-01
2.628657164291072945e+01 2.243793973361792038e-01
2.664666166541635661e+01 2.231440688194550603e-01
2.700675168792198022e+01 2.219074318896857023e-01
2.736684171042760738e+01 2.206695964773038865e-01
2.772693173293323454e+01 2.194306711960488099e-01
2.808702175543886170e+01 2.181907634886414982e-01
2.844711177794448886e+01 2.169499797671435581e-01
2.880720180045011247e+01 2.157084255487191349e-01
2.916729182295573963e+01 2.144662055874806128e-01
2.952738184546136679e+01 2.132234240030710937e-01
2.988747186796699040e+01 2.119801844066178664e-01
3.024756189047261756e+01 2.107365900246748747e-01
3.060765191297824472e+01 2.094927438217567550e-01
3.096774193548387188e+01 2.082487486220595263e-01
3.132783195798949905e+01 2.070047072309678937e-01
3.168792198049512621e+01 2.057607225569351717e-01
3.204801200300074981e+01 2.045168977343431727e-01
3.240810202550637342e+01 2.032733362479503536e-01
3.276819204801200414e+01 2.020301420595562447e-01
3.312828207051762774e+01 2.007874197375246472e-01
3.348837209302325846e+01 1.995452745898432523e-01
3.384846211552888917e+01 1.983038128014177337e-01
3.420855213803451278e+01 1.970631415763422767e-01
3.456864216054013639e+01 1.958233692859270014e-01
3.492873218304576000e+01 1.945846056233172527e-01
3.528882220555138360e+01 1.933469617655905470e-01
3.564891222805700721e+01 1.921105505442914918e-01
3.600900225056263793e+01 1.908754866254262494e-01
3.636909227306826153e+01 1.896418867000374542e-01
3.672918229557389225e+01 1.884098696865608158e-01
3.708927231807951586e+01 1.871795569462806341e-01
3.744936234058514657e+01 1.859510725133168563e-01
3.780945236309077728e+01 1.847245433407152249e-01
3.816954238559639379e+01 1.835000995643499000e-01
3.852963240810202450e+01 1.822778747865418381e-01
3.888972243060764811e+01 1.810580063814532792e-01
3.924981245311327882e+01 1.798406358245598913e-01
3.960990247561890953e+01 1.786259090487172518e-01
3.996999249812453314e+01 1.774139768296187636e-01
4.033008252063015675e+01 1.762049952037279266e-01
4.069017254313578746e+01 1.749991259221085060e-01
4.105026256564141818e+01 1.737965369439365138e-01
4.141035258814704179e+01 1.725974029739084648e-01
4.177044261065265829e+01 1.714019060481997980e-01
4.213053263315829611e+01 1.702102361741768821e-01
4.249062265566391972e+01 1.690225920296077045e-01
4.285071267816953622e+01 1.678391817277861131e-01
4.321080270067515983e+01 1.666602236556868621e-01
4.357089272318079765e+01 1.654859473930678226e-01
4.393098274568641415e+01 1.643165947213114653e-01
4.429107276819205197e+01 1.631524207317798514e-01
4.465116279069766847e+01 1.619936950445197976e-01
4.501125281320330629e+01 1.608407031493383488e-01
4.537134283570892990e+01 1.596937478825458945e-01
4.573143285821454640e+01 1.585531510540580669e-01
4.609152288072018422e+01 1.574192552410335344e-01
4.645161290322580783e+01 1.562924257658094840e-01
4.681170292573143854e+01 1.551730528775450979e-01
4.717179294823706215e+01 1.540615541586822512e-01
4.753188297074267865e+01 1.529583771789933822e-01
4.789197299324831647e+01 1.518640024215897055e-01
4.825206301575394008e+01 1.507789465066557699e-01
4.861215303825957079e+01 1.497037657397217447e-01
4.897224306076519440e+01 1.486390600118084326e-01
4.933233308327082511e+01 1.475854770784615633e-01
4.969242310577644872e+01 1.465437172431962587e-01
5.005251312828207233e+01 1.455145384677029863e-01
5.041260315078768883e+01 1.444987619257061817e-01
5.077269317329332665e+01 1.434972780087724054e-01
5.113278319579895026e+01 1.425110527796726867e-01
5.149287321830456676e+01 1.415411348507874534e-01
5.185296324081020458e+01 1.405886626400159878e-01
5.221305326331582819e+01 1.396548719228701552e-01
5.257314328582145890e+01 1.387411035548687110e-01
5.293323330832708251e+01 1.378488111807818772e-01
5.329332333083271322e+01 1.369795686745669261e-01
5.365341335333833683e+01 1.361350769641974101e-01
5.401350337584396044e+01 1.353171697881606350e-01
5.437359339834959115e+01 1.345278178060479168e-01
5.473368342085521476e+01 1.337691303480504357e-01
5.509377344336084548e+01 1.330433539451920666e-01
5.545386346586646908e+01 1.323528666474806659e-01
5.581395348837209269e+01 1.317001670319136453e-01
5.617404351087772341e+01 1.310878567557961227e-01
5.653413353338334701e+01 1.305186155605002063e-01
5.689422355588897773e+01 1.299951678190437165e-01
5.725431357839460134e+01 1.295202400890078931e-01
5.761440360090022494e+01 1.290965097098610292e-01
5.797449362340585566e+01 1.287265452740527227e-01
5.833458364591147927e+01 1.284127407659292619e-01
5.869467366841710998e+01 1.281572462091003506e-01
5.905476369092273359e+01 1.279618986434956363e-01
5.941485371342836430e+01 1.278281579801332779e-01
5.977494373593398080e+01 1.277570525626735287e-01
6.013503375843961862e+01 1.277491389551072831e-01
6.049512378094523513e+01 1.278044795282245738e-01
6.085521380345086584e+01 1.279226399192837926e-01
6.121530382595648945e+01 1.281027066036876660e-01
6.157539384846211306e+01 1.283433229421940547e-01
6.193548387096774377e+01 1.286427404602596136e-01
6.229557389347336738e+01 1.289988810180787981e-01
6.265566391597899809e+01 1.294094050604427115e-01
6.301575393848460749e+01 1.298717812794558113e-01
6.337584396099025241e+01 1.303833536555975559e-01
6.373593398349586892e+01 1.309414027782985490e-01
6.409602400600149963e+01 1.315431993931367727e-01
6.445611402850711613e+01 1.321860491188412978e-01
6.481620405101274685e+01 1.328673281167316311e-01
6.517629407351837756e+01 1.335845101270262125e-01
6.553638409602400827e+01 1.343351857049180642e-01
6.589647411852962477e+01 1.351170747189223142e-01
6.625656414103525549e+01 1.359280332542362468e-01
6.661665416354088620e+01 1.367660560376401935e-01
6.697674418604651692e+01 1.376292754068292878e-01
6.733683420855213342e+01 1.385159577174710499e-01
6.769692423105777834e+01 1.394244979388458427e-01
6.805701425356338063e+01 1.403534130490257659e-01
6.841710427606902556e+01 1.413013347124060237e-01
6.877719429857464206e+01 1.422670016105717916e-01
6.913728432108027278e+01 1.432492517034260338e-01
6.949737434358588928e+01 1.442470146207107951e-01
6.985746436609151999e+01 1.452593043228873337e-01
7.021755438859715071e+01 1.462852121227443958e-01
7.057764441110276721e+01 1.473239001228174028e-01
7.093773443360839792e+01 1.483745950966743887e-01
7.129782445611401442e+01 1.494365828224340220e-01
7.165791447861965935e+01 1.505092028629523571e-01
7.201800450112527585e+01 1.515918437776154759e-01
7.237809452363090656e+01 1.526839387445035889e-01
7.273818454613652307e+01 1.537849615680241533e-01
7.309827456864215378e+01 1.548944230452350690e-01
7.345836459114778449e+01 1.560118676635225687e-01
7.381845461365341521e+01 1.571368706026248230e-01
7.417854463615903171e+01 1.582690350149365821e-01
7.453863465866467664e+01 1.594079895593525364e-01
7.489872468117029314e+01 1.605533861654639960e-01
7.525881470367592385e+01 1.617048980065807495e-01
7.561890472618155457e+01 1.628622176617485207e-01
7.597899474868718528e+01 1.640250554485913614e-01
7.633908477119278757e+01 1.651931379104091824e-01
7.669917479369843250e+01 1.663662064424882570e-01
7.705926481620404900e+01 1.675440160439754800e-01
7.741935483870966550e+01 1.687263341829984276e-01
7.777944486121529621e+01 1.699129397639006500e-01
7.813953488372092693e+01 1.711036221865645801e-01
7.849962490622655764e+01 1.722981804887974422e-01
7.885971492873217414e+01 1.734964225636432822e-01
7.921980495123781907e+01 1.746981644443218740e-01
7.957989497374342136e+01 1.759032296502090476e-01
7.993998499624906628e+01 1.771114485879423939e-01
8.030007501875468279e+01 1.783226580023370422e-01
8.066016504126031350e+01 1.795367004723079085e-01
8.102025506376593000e+01 1.807534239474917759e-01
8.138034508627157493e+01 1.819726813216723527e-01
8.174043510877720564e+01 1.831943300395103003e-01
8.210052513128283636e+01 1.844182317333954435e-01
8.246061515378843865e+01 1.856442518875778269e-01
8.282070517629408357e+01 1.868722595269733944e-01
8.318079519879968586e+01 1.881021269283075503e-01
8.354088522130531658e+01 1.893337293514643638e-01
8.390097524381096150e+01 1.905669447891136514e-01
8.426106526631659221e+01 1.918016537328481874e-01
8.462115528882219451e+01 1.930377389542370092e-01
8.498124531132783943e+01 1.942750852993192501e-01
8.534133533383347014e+01 1.955135794952034545e-01
8.570142535633907244e+01 1.967531099675345341e-01
8.606151537884471736e+01 1.979935666676926609e-01
8.642160540135031965e+01 1.992348409086809879e-01
8.678169542385595037e+01 2.004768252087224256e-01
8.714178544636159529e+01 2.017194131416636949e-01
8.750187546886722600e+01 2.029624991933390299e-01
8.786196549137282830e+01 2.042059786231057161e-01
8.822205551387845901e+01 2.054497473297942634e-01
8.858214553638410393e+01 2.066937017213600902e-01
8.894223555888973465e+01 2.079377385875703643e-01
8.930232558139533694e+01 2.091817549750585314e-01
8.966241560390098186e+01 2.104256480641282512e-01
9.002250562640661258e+01 2.116693150466799900e-01
9.038259564891224329e+01 2.129126530046737131e-01
9.074268567141785979e+01 2.141555587885097811e-01
9.110277569392349051e+01 2.153979288947588666e-01
9.146286571642909280e+01 2.166396593426255512e-01
9.182295573893473772e+01 2.178806455485570170e-01
9.218304576144036844e+01 2.191207821983730264e-01
9.254313578394597073e+01 2.203599631163004058e-01
9.290322580645161565e+01 2.215980811302497300e-01
9.326331582895724637e+01 2.228350279326727634e-01
9.362340585146287708e+01 2.240706939362861749e-01
9.398349587396849358e+01 2.253049681239237267e-01
9.434358589647412430e+01 2.265377378917396989e-01
9.470367591897972659e+01 2.277688888849246640e-01
9.506376594148535730e+01 2.289983048250604503e-01
9.542385596399100223e+01 2.302258673281584456e-01
9.578394598649663294e+01 2.314514557123743821e-01
9.614403600900223523e+01 2.326749467943047822e-01
9.650412603150788016e+01 2.338962146726936142e-01
9.686421605401351087e+01 2.351151304982596058e-01
9.722430607651914158e+01 2.363315622282920470e-01
9.758439609902475809e+01 2.375453743644835303e-01
9.794448612153038880e+01 2.387564276723966594e-01
9.830457614403601951e+01 2.399645788807766023e-01
9.866466616654165023e+01 2.411696803587778937e-01
9.902475618904726673e+01 2.423715797689937335e-01
9.938484621155289744e+01 2.435701196939803193e-01
9.974493623405851395e+01 2.447651372337544540e-01
1.001050262565641447e+02 2.459564635715071612e-01
1.004651162790697754e+02 2.471439235045155836e-01
1.008252063015753777e+02 2.483273349369514993e-01
1.011852963240810226e+02 2.495065083309737364e-01
1.015453863465866533e+02 2.506812461121527558e-01
1.019054763690922840e+02 2.518513420249059998e-01
1.022655663915979005e+02 2.530165804332157320e-01
1.026256564141035312e+02 2.541767355614819035e-01
1.029857464366091335e+02 2.553315706698724430e-01
1.033458364591147784e+02 2.564808371580616364e-01
1.037059264816204092e+02 2.576242735906824066e-01
1.040660165041260399e+02 2.587616046373005241e-01
1.044261065266316564e+02 2.598925399190893382e-01
1.047861965491372871e+02 2.610167727538275084e-01
1.051462865716429178e+02 2.621339787902085550e-01
1.055063765941485485e+02 2.632438145218826686e-01
1.058664666166541650e+02 2.643459156710787350e-01
1.062265566391597957e+02 2.654398954311784076e-01
1.065866466616654264e+02 2.665253425572135515e-01
1.069467366841710572e+02 2.676018192930482709e-01
1.073068267066766737e+02 2.686688591239847490e-01
1.076669167291822760e+02 2.697259643438706944e-01
1.080270067516879209e+02 2.707726034265097725e-01
1.083870967741935516e+02 2.718082081925087268e-01
1.087471867966991823e+02 2.728321707647651806e-01
1.091072768192047988e+02 2.738438403088261919e-01
1.094673668417104295e+02 2.748425195586601810e-01
1.098274568642160602e+02 2.758274611342361182e-01
1.101875468867216910e+02 2.767978636651379221e-01
1.105476369092273075e+02 2.777528677446635674e-01
1.109077269317329382e+02 2.786915517520871521e-01
1.112678169542385547e+02 2.796129275973728845e-01
1.116279069767441854e+02 2.805159364634615127e-01
1.119879969992498161e+02 2.813994446466690502e-01
1.123480870217554468e+02 2.822622396263650413e-01
1.127081770442610633e+02 2.831030265312155514e-01
1.130682670667666940e+02 2.839204252108827320e-01
1.134283570892723247e+02 2.847129681685541258e-01
1.137884471117779555e+02 2.854790996598575159e-01
1.141485371342835720e+02 2.862171763150152537e-01
1.145086271567892027e+02 2.869254696898594359e-01
1.148687171792948334e+02 2.876021711918822499e-01
1.152288072018004499e+02 2.882453998524707739e-01
1.155888972243060806e+02 2.888532134163498410e-01
1.159489872468117113e+02 2.894236231830851214e-01
1.163090772693173278e+02 2.899546129515466197e-01
1.166691672918229585e+02 2.904441622758036079e-01
1.170292573143285892e+02 2.908902740325762792e-01
1.173893473368342200e+02 2.912910060250641919e-01
1.177494373593398080e+02 2.916445060142144330e-01
1.181095273818454672e+02 2.919490491971686308e-01
1.184696174043510979e+02 2.922030767781271798e-01
1.188297074268567286e+02 2.924052339452888893e-01
1.191897974493623167e+02 2.925544053321024740e-01
1.195498874718679616e+02 2.926497459528032974e-01
1.199099774943735923e+02 2.926907056997327117e-01
1.202700675168792372e+02 2.926770457880651377e-01
1.206301575393848395e+02 2.926088460165489069e-01
1.209902475618904703e+02 2.924865023327800628e-01
1.213503375843961010e+02 2.923107148753442130e-01
1.217104276069017317e+02 2.920824673272598981e-01
1.220705176294073482e+02 2.918029989744436170e-01
1.224306076519129789e+02 2.914737712574902440e-01
1.227906976744186096e+02 2.910964308028511915e-01
1.231507876969242261e+02 2.906727709205369492e-01
1.235108777194298568e+02 2.902046933877824864e-01
1.238709677419354875e+02 2.896941720478300453e-01
1.242310577644411183e+02 2.891432193936022133e-01
1.245911477869467348e+02 2.885538569279940679e-01
1.249512378094523655e+02 2.879280897365321112e-01
1.253113278319579962e+02 2.872678854018310690e-01
1.256714178544636269e+02 2.865751571470482317e-01
1.260315078769692150e+02 2.858517509207793572e-01
1.263915978994748741e+02 2.850994360238164327e-01
1.267516879219805048e+02 2.843198988196015686e-01
1.271117779444861355e+02 2.835147390534929479e-01
1.274718679669917378e+02 2.826854683196922124e-01
1.278319579894973685e+02 2.818335102484761379e-01
1.281920480120029993e+02 2.809602020318826554e-01
1.285521380345086584e+02 2.800667969565964754e-01
1.289122280570142323e+02 2.791544676638896272e-01
1.292723180795198630e+02 2.782243099050422108e-01
1.296324081020254937e+02 2.772773466048299995e-01
1.299924981245311244e+02 2.763145320845377118e-01
1.303525881470367551e+02 2.753367563293204201e-01
1.307126781695423858e+02 2.743448492126996929e-01
1.310727681920480165e+02 2.733395846140448948e-01
1.314328582145536188e+02 2.723216843835210010e-01
1.317929482370592495e+02 2.712918221238483363e-01
1.321530382595648803e+02 2.702506267698658871e-01
1.325131282820705110e+02 2.691986859558564427e-01
1.328732183045761417e+02 2.681365491673888823e-01
1.332333083270817724e+02 2.670647306794670661e-01
1.335933983495874031e+02 2.659837122863999981e-01
1.339534883720930338e+02 2.648939458313365747e-01
1.343135783945986361e+02 2.637958555450769516e-01
1.346736684171042668e+02 2.626898402047845860e-01
1.350337584396098976e+02 2.615762751237333816e-01
1.353938484621155567e+02 2.604555139833750754e-01
1.357539384846211306e+02 2.593278905188856620e-01
1.361140285071267613e+02 2.581937200690326839e-01
1.364741185296323920e+02 2.570533010007645114e-01
1.368342085521380511e+02 2.559069160183951586e-01
1.371942985746436534e+02 2.547548333666803666e-01
1.375543885971492841e+02 2.535973079364816085e-01
1.379144786196549148e+02 2.524345822811149831e-01
1.382745686421605456e+02 2.512668875508888289e-01
1.386346586646661478e+02 2.500944443527626238e-01
1.389947486871717786e+02 2.489174635415100090e-01
1.393548387096774093e+02 2.477361469482631529e-01
1.397149287321830400e+02 2.465506880518167077e-01
1.400750187546886707e+02 2.453612725976347386e-01
1.404351087771943014e+02 2.441680791690740981e-01
1.407951987996999321e+02 2.429712797149652104e-01
1.411552888222055344e+02 2.417710400373170865e-01
1.415153788447111651e+02 2.405675202426112158e-01
1.418754688672167958e+02 2.393608751598357842e-01
1.422355588897224550e+02 2.381512547281455228e-01
1.425956489122280288e+02 2.369388043567843827e-01
1.429557389347336880e+02 2.357236652596779725e-01
1.433158289572393187e+02 2.345059747669159533e-01
