Theta (degrees)	Normalized Energy
0.000000000000000000e+00 2.926924137002230863e-01
1.152922337870296188e+00 2.924136540176759391e-01
2.305844675740592375e+00 2.915933754273207223e-01
3.458767013610888785e+00 2.902751055158748206e-01
4.611689351481184751e+00 2.885191199586010224e-01
5.764611689351481161e+00 2.863908043669178838e-01
6.917534027221777571e+00 2.839521570960003016e-01
8.070456365092075757e+00 2.812574002836615294e-01
9.223378702962369502e+00 2.783517353159897234e-01
1.037630104083266502e+01 2.752718625343322234e-01
1.152922337870296232e+01 2.720472242139014840e-01
1.268214571657325962e+01 2.687013825665356959e-01
1.383506805444355514e+01 2.652532686172877630e-01
1.498799039231385066e+01 2.617182175155407520e-01
1.614091273018415151e+01 2.581087889857364148e-01
1.729383506805444526e+01 2.544354026811306291e-01
1.844675740592473900e+01 2.507068249605511889e-01
1.959967974379503630e+01 2.469305406306636363e-01
2.075260208166533005e+01 2.431130372843521847e-01
2.190552441953563090e+01 2.392600238493865772e-01
2.305844675740592464e+01 2.353765998227384526e-01
2.421136909527622194e+01 2.314673876002014685e-01
2.536429143314651924e+01 2.275366372194729259e-01
2.651721377101681654e+01 2.235883105372333535e-01
2.767013610888711028e+01 2.196261501791557380e-01
2.882305844675740758e+01 2.156537373882833064e-01
2.997598078462770133e+01 2.116745420384234799e-01
3.112890312249799862e+01 2.076919674929428861e-01
3.228182546036830303e+01 2.037093926194413485e-01
3.343474779823858967e+01 1.997302130825923394e-01
3.458767013610889052e+01 1.957578840149012955e-01
3.574059247397918426e+01 1.917959663095554490e-01
3.689351481184947801e+01 1.878481791105823251e-01
3.804643714971977886e+01 1.839184616343115253e-01
3.919935948759007260e+01 1.800110483115806015e-01
4.035228182546037345e+01 1.761305624987622442e-01
4.150520416333066009e+01 1.722821358267895286e-01
4.265812650120096094e+01 1.684715628735719006e-01
4.381104883907126180e+01 1.647055045895512437e-01
4.496397117694155554e+01 1.609917592395027075e-01
4.611689351481184929e+01 1.573396271456440898e-01
4.726981585268215014e+01 1.537604059058556294e-01
4.842273819055244388e+01 1.502680664991858372e-01
4.957566052842274473e+01 1.468801772226001889e-01
5.072858286629303848e+01 1.436191578878781849e-01
5.188150520416332512e+01 1.405139486092888135e-01
5.303442754203363307e+01 1.376021329041874353e-01
5.418734987990391971e+01 1.349323894532154788e-01
5.534027221777422056e+01 1.325667230756442660e-01
5.649319455564451431e+01 1.305810771066110987e-01
5.764611689351481516e+01 1.290617314297798357e-01
5.879903923138510891e+01 1.280943660197041700e-01
5.995196156925540265e+01 1.277452499780715733e-01
6.110488390712570350e+01 1.280409821534285730e-01
6.225780624499599725e+01 1.289589325175660162e-01
6.341072858286629099e+01 1.304354266373294047e-01
6.456365092073660605e+01 1.323855975863451884e-01
6.571657325860689980e+01 1.347226788309835999e-01
6.686949559647717933e+01 1.373696463584594130e-01
6.802241793434747308e+01 1.402633196224661039e-01
6.917534027221778103e+01 1.433539845918019306e-01
7.032826261008807478e+01 1.466032290632804103e-01
7.148118494795836853e+01 1.499814798119654125e-01
7.263410728582866227e+01 1.534658436424985173e-01
7.378702962369895602e+01 1.570384010613806725e-01
7.493995196156924976e+01 1.606849205777987066e-01
7.609287429943955772e+01 1.643939105634444342e-01
7.724579663730985146e+01 1.681559252900871881e-01
7.839871897518014521e+01 1.719630567766509688e-01
7.955164131305045316e+01 1.758085607406328910e-01
8.070456365092074691e+01 1.796865789659588819e-01
8.185748598879102644e+01 1.835919310551669681e-01
8.301040832666132019e+01 1.875199562687566435e-01
8.416333066453162814e+01 1.914663916455846826e-01
8.531625300240192189e+01 1.954272764554039199e-01
8.646917534027221564e+01 1.993988757305740767e-01
8.762209767814252359e+01 2.033776175012521337e-01
8.877502001601281734e+01 2.073600396569266202e-01
8.992794235388311108e+01 2.113427432415381502e-01
9.108086469175340483e+01 2.153223495698485812e-01
9.223378702962369857e+01 2.192954589008293265e-01
9.338670936749399232e+01 2.232586085628168737e-01
9.453963170536430027e+01 2.272082284162444399e-01
9.569255404323459402e+01 2.311405913657645916e-01
9.684547638110488776e+01 2.350517562798550841e-01
9.799839871897519572e+01 2.389375001095895290e-01
9.915132105684548947e+01 2.427932351649229881e-01
1.003042433947157832e+02 2.466139063267822618e-01
1.014571657325860770e+02 2.503938613358059340e-01
1.026100880704563565e+02 2.541266850587849402e-01
1.037630104083266502e+02 2.578049856156814368e-01
1.049159327461969440e+02 2.614201162713998827e-01
1.060688550840672661e+02 2.649618119459027366e-01
1.072217774219375457e+02 2.684177132311971747e-01
1.083746997598078394e+02 2.717727448108123167e-01
1.095276220976781616e+02 2.750083117701322410e-01
1.106805444355484411e+02 2.781012828148448635e-01
1.118334667734187349e+02 2.810227576075488565e-01
1.129863891112890286e+02 2.837366927596057242e-01
1.141393114491593224e+02 2.861986306724032536e-01
1.152922337870296303e+02 2.883550864299710415e-01
1.164451561248999099e+02 2.901445946264998299e-01
1.175980784627702178e+02 2.915017853138934245e-01
1.187510008006405258e+02 2.923655377879598172e-01
1.199039231385108053e+02 2.926904682917139122e-01
1.210568454763811133e+02 2.924579933589781522e-01
1.222097678142514070e+02 2.916814976035632112e-01
1.233626901521217007e+02 2.904025740609320616e-01
1.245156124899919945e+02 2.886805701466036433e-01
1.256685348278623024e+02 2.865808276925988496e-01
1.268214571657325820e+02 2.841658482073464720e-01
1.279743795036028899e+02 2.814905832545715469e-01
1.291273018414732121e+02 2.786009822181303996e-01
1.302802241793434632e+02 2.755344113495167280e-01
1.314331465172137996e+02 2.723208645714356169e-01
1.325860688550840507e+02 2.689843437272932958e-01
1.337389911929543587e+02 2.655441231392298707e-01
1.348919135308246666e+02 2.620158034683160442e-01
1.360448358686949462e+02 2.584121491459793196e-01
1.371977582065652541e+02 2.547437377596324937e-01
1.383506805444355621e+02 2.510194578575131730e-01
1.395036028823058416e+02 2.472468891351403963e-01
1.406565252201761496e+02 2.434325931533890819e-01
1.418094475580464575e+02 2.395823366766201279e-01
1.429623698959167371e+02 2.357012644933637324e-01
1.441152922337870166e+02 2.317940344285583654e-01
1.452682145716573245e+02 2.278649240902023421e-01
1.464211369095276041e+02 2.239179165366088076e-01
1.475740592473979120e+02 2.199567703236446625e-01
1.487269815852682200e+02 2.159850781436213341e-01
1.498799039231384995e+02 2.120063173826951253e-01
1.510328262610088075e+02 2.080238953171320015e-01
1.521857485988791154e+02 2.040411912824552365e-01
1.533386709367493950e+02 2.000615979470013184e-01
1.544915932746197029e+02 1.960885637852853303e-01
1.556445156124900109e+02 1.921256389765744199e-01
1.567974379503602904e+02 1.881765272683365298e-01
1.579503602882305984e+02 1.842451468818312732e-01
1.591032826261009063e+02 1.803357043643578905e-01
1.602562049639711859e+02 1.764527865124942141e-01
1.614091273018414938e+02 1.726014772571580480e-01
1.625620496397117734e+02 1.687875089401551509e-01
1.637149719775820529e+02 1.650174610465236225e-01
1.648678943154523893e+02 1.612990246368643799e-01
1.660208166533226404e+02 1.576413580376749279e-01
1.671737389911929768e+02 1.540555694731280678e-01
1.683266613290632563e+02 1.505553757785507429e-01
1.694795836669335358e+02 1.471580027125447832e-01
1.706325060048038438e+02 1.438854082608993779e-01
1.717854283426741233e+02 1.407659142242052019e-01
1.729383506805444313e+02 1.378362927415969774e-01
1.740912730184147108e+02 1.351442034016415161e-01
1.752441953562850472e+02 1.327504810689063008e-01
1.763971176941552983e+02 1.307299654174228221e-01
1.775500400320256347e+02 1.291683744805953993e-01
1.787029623698959142e+02 1.281520669677433943e-01
1.798558847077662222e+02 1.277497579494110691e-01
1.810088070456365017e+02 1.279919438119163089e-01
1.821617293835068097e+02 1.288600244231913605e-01
1.833146517213770892e+02 1.302930659943505320e-01
1.844675740592473971e+02 1.322071527677796121e-01
1.856204963971177051e+02 1.345151119096358316e-01
1.867734187349879846e+02 1.371388651880752485e-01
1.879263410728582926e+02 1.400140521266356464e-01
1.890792634107286005e+02 1.430899074910071955e-01
1.902321857485988801e+02 1.463271729784989261e-01
1.913851080864691880e+02 1.496956271954768825e-01
1.925380304243394676e+02 1.531718917409323200e-01
1.936909527622097755e+02 1.567376870474699591e-01
1.948438751000800551e+02 1.603785145770508236e-01
1.959967974379503914e+02 1.640826838910701413e-01
1.971497197758206426e+02 1.678406003559209103e-01
1.983026421136909789e+02 1.716442436980541442e-01
1.994555644515612585e+02 1.754867843902181146e-01
2.006084867894315664e+02 1.793622991429263680e-01
2.017614091273018460e+02 1.832655577016600035e-01
2.029143314651721539e+02 1.871918611030362056e-01
2.040672538030424334e+02 1.911369171961888325e-01
2.052201761409127130e+02 1.950967432089690534e-01
2.063730984787830209e+02 1.990675879165698103e-01
2.075260208166533005e+02 2.030458679052863924e-01
2.086789431545236368e+02 2.070281137637453861e-01
2.098318654923938880e+02 2.110109229479872339e-01
2.109847878302642243e+02 2.149909166693400042e-01
2.121377101681345323e+02 2.189646985195208007e-01
2.132906325060048118e+02 2.229288127210220793e-01
2.144435548438750914e+02 2.268796998955919797e-01
2.155964771817453993e+02 2.308136480836406601e-01
2.167493995196156789e+02 2.347267364097031517e-01
2.179023218574859868e+02 2.386147682421175531e-01
2.190552441953563232e+02 2.424731898866823165e-01
2.202081665332265743e+02 2.462969897066173697e-01
2.213610888710968823e+02 2.500805709669335353e-01
2.225140112089671902e+02 2.538175895180320163e-01
2.236669335468374697e+02 2.575007444872691176e-01
2.248198558847077777e+02 2.611215062546076715e-01
2.259727782225780572e+02 2.646697610269694301e-01
2.271257005604483652e+02 2.681333454178604359e-01
2.282786228983186447e+02 2.714974383819271919e-01
2.294315452361889811e+02 2.747437740591391897e-01
2.305844675740592606e+02 2.778496434766070111e-01
2.317373899119295402e+02 2.807866785639376861e-01
2.328903122497998197e+02 2.835194837513682620e-01
2.340432345876701561e+02 2.860043403936999296e-01
2.351961569255404356e+02 2.881885072318624008e-01
2.363490792634107436e+02 2.900110793884367877e-01
2.375020016012810515e+02 2.914067595001005317e-01
2.386549239391513311e+02 2.923136638535068776e-01
2.398078462770216106e+02 2.926846328780998152e-01
2.409607686148919186e+02 2.924985380104314636e-01
2.421136909527622265e+02 2.917661204172816158e-01
2.432666132906325345e+02 2.905269624823726970e-01
2.444195356285028140e+02 2.888393991239955882e-01
2.455724579663730651e+02 2.867686664643816497e-01
2.467253803042434015e+02 2.843777370919749470e-01
2.478783026421137095e+02 2.817222827675154861e-01
2.490312249799839890e+02 2.788490044087035824e-01
2.501841473178543254e+02 2.757959429311619970e-01
2.513370696557246049e+02 2.725936536421244560e-01
2.524899919935948560e+02 2.692665868452247535e-01
2.536429143314651640e+02 2.658343674774721888e-01
2.547958366693355003e+02 2.623128675089861916e-01
2.559487590072057799e+02 2.587150605661354130e-01
2.571016813450760878e+02 2.550516856077413297e-01
2.582546036829464242e+02 2.513317559954629243e-01
2.594075260208166469e+02 2.475629483199270064e-01
2.605604483586869264e+02 2.437518996513530212e-01
2.617133706965572628e+02 2.399044357836090935e-01
2.628662930344275992e+02 2.360257477289472439e-01
2.640192153722978787e+02 2.321205294786648776e-01
2.651721377101681014e+02 2.281930868028710369e-01
2.663250600480384378e+02 2.242474244455579802e-01
2.674779823859087173e+02 2.202873172981105465e-01
2.686309047237790537e+02 2.163163698516542277e-01
2.697838270616493332e+02 2.123380673172291233e-01
2.709367493995196696e+02 2.083558211756306455e-01
2.720896717373898923e+02 2.043730115157340599e-01
2.732425940752602287e+02 2.003930283032297477e-01
2.743955164131305082e+02 1.964193136719381838e-01
2.755484387510007878e+02 1.924554074456227282e-01
2.767013610888711241e+02 1.885049983959336539e-01
2.778542834267414037e+02 1.845719842590190785e-01
2.790072057646116832e+02 1.806605443330935590e-01
2.801601281024819627e+02 1.767752296613037399e-01
2.813130504403522991e+02 1.729210775176953097e-01
2.824659727782225787e+02 1.691037593777302284e-01
2.836188951160929150e+02 1.653297750829074986e-01
2.847718174539631946e+02 1.616067109394836721e-01
2.859247397918334741e+02 1.579435866018594481e-01
2.870776621297037536e+02 1.543513254572941584e-01
2.882305844675740332e+02 1.508433964020838292e-01
2.893835068054443695e+02 1.474366910998229641e-01
2.905364291433146491e+02 1.441527170061986940e-01
2.916893514811849855e+02 1.410191921399820414e-01
2.928422738190552082e+02 1.380720944407237694e-01
2.939951961569255445e+02 1.353580810059510919e-01
2.951481184947958241e+02 1.329368239592164103e-01
2.963010408326661036e+02 1.308820396300010291e-01
2.974539631705364400e+02 1.292788140780165573e-01
2.986068855084067195e+02 1.282140545484302674e-01
2.997598078462769990e+02 1.277587713522025381e-01
3.009127301841472786e+02 1.279472773559777732e-01
3.020656525220176150e+02 1.287650528192623711e-01
3.032185748598878945e+02 1.301540471435989332e-01
3.043714971977582309e+02 1.320314373201701696e-01
3.055244195356284536e+02 1.343097297659338885e-01
3.066773418734987899e+02 1.369098221384790759e-01
3.078302642113690695e+02 1.397661715308826658e-01
3.089831865492394058e+02 1.428269461270879614e-01
3.101361088871096854e+02 1.460520240304881145e-01
3.112890312249800218e+02 1.494105203647585201e-01
3.124419535628502445e+02 1.528785594342021992e-01
3.135948759007205808e+02 1.564374924966220881e-01
3.147477982385908604e+02 1.600725472597621657e-01
3.159007205764611967e+02 1.637718295684039149e-01
3.170536429143314763e+02 1.675255922926572605e-01
3.182065652522018127e+02 1.713257002245011096e-01
3.193594875900720353e+02 1.751652366319256804e-01
3.205124099279423717e+02 1.790382116826906844e-01
3.216653322658126513e+02 1.829393441500284379e-01
3.228182546036829876e+02 1.868638959880226935e-01
3.239711769415532672e+02 1.908075451836745706e-01
3.251240992794235467e+02 1.947662863855580961e-01
3.262770216172938262e+02 1.987363516714498179e-01
3.274299439551641058e+02 2.027141458119581519e-01
3.285828662930344422e+02 2.066961917690280925e-01
3.297357886309047785e+02 2.106790831127076657e-01
3.308887109687750581e+02 2.146594406647684417e-01
3.320416333066452808e+02 2.186338710609410096e-01
3.331945556445156171e+02 2.225989251120043255e-01
3.343474779823859535e+02 2.265510538623560222e-01
3.355004003202562330e+02 2.304865600987448526e-01
3.366533226581265126e+02 2.344015427398432605e-01
3.378062449959967921e+02 2.382918310095304970e-01
3.389591673338670716e+02 2.421529045126966373e-01
3.401120896717374080e+02 2.459797942168807650e-01
3.412650120096076876e+02 2.497669577909922278e-01
3.424179343474779671e+02 2.535081206244643726e-01
3.435708566853482466e+02 2.571960709747987406e-01
3.447237790232186398e+02 2.608223938840351086e-01
3.458767013610888625e+02 2.643771236328656404e-01
3.470296236989591421e+02 2.678482886551087350e-01
3.481825460368294216e+02 2.712213167300550065e-01
3.493354683746998148e+02 2.744782641267087264e-01
3.504883907125700944e+02 2.775968357183186686e-01
3.516413130504403739e+02 2.805491860801680448e-01
3.527942353883105966e+02 2.833005581765649650e-01
3.539471577261809898e+02 2.858079669062342787e-01
3.551000800640512693e+02 2.880194198121285853e-01
3.562530024019215489e+02 2.898745979706989218e-01
3.574059247397918284e+02 2.913083309815931443e-01
3.585588470776621648e+02 2.922580527412392826e-01
3.597117694155324443e+02 2.926749098933340010e-01
3.608646917534027239e+02 2.925352715894625200e-01
3.620176140912730034e+02 2.918472133071776664e-01
3.631705364291433398e+02 2.906482332615406006e-01
3.643234587670136193e+02 2.889955688479604046e-01
3.654763811048839557e+02 2.869542861066427530e-01
3.666293034427541784e+02 2.845877942997540599e-01
3.677822257806244579e+02 2.819524746501789747e-01
3.689351481184947943e+02 2.790957824187266234e-01
3.700880704563650738e+02 2.760564417069472642e-01
3.712409927942354102e+02 2.728655789584870095e-01
3.723939151321056329e+02 2.695481018766909265e-01
3.735468374699759693e+02 2.661239934624872738e-01
3.746997598078462488e+02 2.626094029125557450e-01
3.758526821457165852e+02 2.590175176354028719e-01
3.770056044835869216e+02 2.553592414764924157e-01
3.781585268214572011e+02 2.516437152946014999e-01
3.793114491593274238e+02 2.478787146268058017e-01
3.804643714971977602e+02 2.440709536278650449e-01
3.816172938350680397e+02 2.402263183394105772e-01
3.827702161729383761e+02 2.363500469485349254e-01
3.839231385108086556e+02 2.324468703642684486e-01
3.850760608486789351e+02 2.285211231211806970e-01
3.862289831865492147e+02 2.245768321407614065e-01
3.873819055244195511e+02 2.206177890608495562e-01
3.885348278622898306e+02 2.166476105248158479e-01
3.896877502001601101e+02 2.126697898835609168e-01
3.908406725380303897e+02 2.086877431152081575e-01
3.919935948759007829e+02 2.047048513473830045e-01
3.931465172137710056e+02 2.007245021355631431e-01
3.942994395516412851e+02 1.967501315875766210e-01
3.954523618895115646e+02 1.927852695259238969e-01
3.966052842273819579e+02 1.888335901610516121e-01
3.977582065652522374e+02 1.848989712453094347e-01
3.989111289031225169e+02 1.809855654502936506e-01
4.000640512409927396e+02 1.770978888555664599e-01
4.012169735788631328e+02 1.732409330986789675e-01
4.023698959167334124e+02 1.694203101270818634e-01
4.035228182546036919e+02 1.656424419170156315e-01
4.046757405924739714e+02 1.619148124096136121e-01
4.058286629303443078e+02 1.582463058264794442e-01
4.069815852682145874e+02 1.546476651379860845e-01
4.081345076060848669e+02 1.511321173467255197e-01
4.092874299439551464e+02 1.477162282542341387e-01
4.104403522818254260e+02 1.444210658233343325e-01
4.115932746196957623e+02 1.412737585545287278e-01
4.127461969575660419e+02 1.383095072167905837e-01
4.138991192954363214e+02 1.355739833012115925e-01
4.150520416333066009e+02 1.331257047233027069e-01
4.162049639711769373e+02 1.310372479101439003e-01
4.173578863090472737e+02 1.293930018099262724e-01
4.185108086469175532e+02 1.282802963866453982e-01
4.196637309847877759e+02 1.277722851141334381e-01
4.208166533226581123e+02 1.279070069926557529e-01
4.219695756605284487e+02 1.286740622769959597e-01
4.231224979983987282e+02 1.300184219650178108e-01
4.242754203362690646e+02 1.318585004480741230e-01
4.254283426741393441e+02 1.341065741749818407e-01
4.265812650120096237e+02 1.366825506244976063e-01
4.277341873498799032e+02 1.395197038009735879e-01
4.288871096877501827e+02 1.425651204746240519e-01
4.300400320256205191e+02 1.457777976076627680e-01
4.311929543634907986e+02 1.491261712772745940e-01
4.323458767013610782e+02 1.525858561349463238e-01
4.334987990392313577e+02 1.561378249349142100e-01
4.346517213771016941e+02 1.597670247480092454e-01
4.358046437149719736e+02 1.634613526662658800e-01
4.369575660528422532e+02 1.672109053785291177e-01
4.381104883907126464e+02 1.710074300326370200e-01
4.392634107285829259e+02 1.748439206831836068e-01
4.404163330664531486e+02 1.787143194507908595e-01
4.415692554043234281e+02 1.826132929959176920e-01
4.427221777421937645e+02 1.865360633130843382e-01
4.438751000800641009e+02 1.904782778414041700e-01
4.450280224179343804e+02 1.944359081031467595e-01
4.461809447558046031e+02 1.984051690315304373e-01
4.473338670936749395e+02 2.023824532048752178e-01
4.484867894315452759e+02 2.063642756295342162e-01
4.496397117694155554e+02 2.103472256897898351e-01
4.507926341072858349e+02 2.143279235312993969e-01
4.519455564451561145e+02 2.183029785458447392e-01
4.530984787830264509e+02 2.222689478286167530e-01
4.542514011208967304e+02 2.262222925113839544e-01
4.554043234587670099e+02 2.301593297428061458e-01
4.565572457966372895e+02 2.340761777807718325e-01
4.577101681345075690e+02 2.379686911525094595e-01
4.588630904723779622e+02 2.418323820780943212e-01
