Theta (degrees)	Normalized Energy
0.000000000000000000e+00 1.455181950223978324e-16
1.152922337870296188e+00 4.152843185291327206e-05
2.305844675740592375e+00 1.660920923492175284e-04
3.458767013610888785e+00 3.736260422763962546e-04
4.611689351481184751e+00 6.640219353860496400e-04
5.764611689351481161e+00 1.037127844191953639e-03
6.917534027221777571e+00 1.492748010295979252e-03
8.070456365092075757e+00 2.030642513218221864e-03
9.223378702962369502e+00 2.650526849669265772e-03
1.037630104083266502e+01 3.352071412918531702e-03
1.152922337870296232e+01 4.134900859225520107e-03
1.268214571657325962e+01 4.998593345254835965e-03
1.383506805444355514e+01 5.942679616703377792e-03
1.498799039231385066e+01 6.966641924011371736e-03
1.614091273018415151e+01 8.069912735747688734e-03
1.729383506805444526e+01 9.251873213836213361e-03
1.844675740592473900e+01 1.051185140692445855e-02
1.959967974379503630e+01 1.184912010846720862e-02
2.075260208166533005e+01 1.326289431404292785e-02
2.190552441953563090e+01 1.475232819734371460e-02
2.305844675740592464e+01 1.631651150532654679e-02
2.421136909527622194e+01 1.795446524902182331e-02
2.536429143314651924e+01 1.966513653599890471e-02
2.651721377101681654e+01 2.144739235139823258e-02
2.767013610888711028e+01 2.330001204403734164e-02
2.882305844675740758e+01 2.522167820874693725e-02
2.997598078462770133e+01 2.721096557060262780e-02
3.112890312249799862e+01 2.926632736434209639e-02
3.228182546036830303e+01 3.138607855311120048e-02
3.343474779823858967e+01 3.356837503164446929e-02
3.458767013610889052e+01 3.581118769085761544e-02
3.574059247397918426e+01 3.811226985715402554e-02
3.689351481184947801e+01 4.046911612225170818e-02
3.804643714971977886e+01 4.287890989339940978e-02
3.919935948759007260e+01 4.533845604079756592e-02
4.035228182546037345e+01 4.784409368486183117e-02
4.150520416333066009e+01 5.039158228622649810e-02
4.265812650120096094e+01 5.297595153924231082e-02
4.381104883907126180e+01 5.559130178929310578e-02
4.496397117694155554e+01 5.823053633233521431e-02
4.611689351481184929e+01 6.088499941039363095e-02
4.726981585268215014e+01 6.354398330985761012e-02
4.842273819055244388e+01 6.619405421641370857e-02
4.957566052842274473e+01 6.881812993685967883e-02
5.072858286629303848e+01 7.139422710347223533e-02
5.188150520416332512e+01 7.389379356698481949e-02
5.303442754203363307e+01 7.627958628621558934e-02
5.418734987990391971e+01 7.850322039244304884e-02
5.534027221777422056e+01 8.050293889322797380e-02
5.649319455564451431e+01 8.220300084531280416e-02
5.764611689351481516e+01 8.351728375615978528e-02
5.879903923138510891e+01 8.436022037004697882e-02
5.995196156925540265e+01 8.466560986217709639e-02
6.110488390712570350e+01 8.440687735652910306e-02
6.225780624499599725e+01 8.360663259742939779e-02
6.341072858286629099e+01 8.232848543717620482e-02
6.456365092073660605e+01 8.065719379429658886e-02
6.571657325860689980e+01 7.867937054513468587e-02
6.686949559647717933e+01 7.647184107572126133e-02
6.802241793434747308e+01 7.409754191111474209e-02
6.917534027221778103e+01 7.160589712674855778e-02
7.032826261008807478e+01 6.903498236769005370e-02
7.148118494795836853e+01 6.641398688666158567e-02
7.263410728582866227e+01 6.376537151717080742e-02
7.378702962369895602e+01 6.110657383751664368e-02
7.493995196156924976e+01 5.845129248838806107e-02
7.609287429943955772e+01 5.581043367750348344e-02
7.724579663730985146e+01 5.319280320868001455e-02
7.839871897518014521e+01 5.060561235026099502e-02
7.955164131305045316e+01 4.805484918311594966e-02
8.070456365092074691e+01 4.554555303684160866e-02
8.185748598879102644e+01 4.308201894912520868e-02
8.301040832666132019e+01 4.066795132602590152e-02
8.416333066453162814e+01 3.830658046186602439e-02
8.531625300240192189e+01 3.600075168482910759e-02
8.646917534027221564e+01 3.375299415342977033e-02
8.762209767814252359e+01 3.156557439429973771e-02
8.877502001601281734e+01 2.944053829922907081e-02
8.992794235388311108e+01 2.737974431949134063e-02
9.108086469175340483e+01 2.538488989071910687e-02
9.223378702962369857e+01 2.345753261075735063e-02
9.338670936749399232e+01 2.159910731970584100e-02
9.453963170536430027e+01 1.981093995647691813e-02
9.569255404323459402e+01 1.809425886215697971e-02
9.684547638110488776e+01 1.645020404777049194e-02
9.799839871897519572e+01 1.487983482899209349e-02
9.915132105684548947e+01 1.338413614293826673e-02
1.003042433947157832e+02 1.196402379533357402e-02
1.014571657325860770e+02 1.062034883487061702e-02
1.026100880704563565e+02 9.353901211665668902e-03
1.037630104083266502e+02 8.165412845578201573e-03
1.049159327461969440e+02 7.055560205693479393e-03
1.060688550840672661e+02 6.024966482947848902e-03
1.072217774219375457e+02 5.074203422514073428e-03
1.083746997598078394e+02 4.203792870271289527e-03
1.095276220976781616e+02 3.414208077800606842e-03
1.106805444355484411e+02 2.705874802329061735e-03
1.118334667734187349e+02 2.079172231525760160e-03
1.129863891112890286e+02 1.534433757677952474e-03
1.141393114491593224e+02 1.071947621344207166e-03
1.152922337870296303e+02 6.919574408670355753e-04
1.164451561248999099e+02 3.946626409941888765e-04
1.175980784627702178e+02 1.802187911706272505e-04
1.187510008006405258e+02 4.873786175466119188e-05
1.199039231385108053e+02 2.884043181963906322e-07
1.210568454763811133e+02 3.489566036345020543e-05
1.222097678142514070e+02 1.525416010322476685e-04
1.233626901521217007e+02 3.531648987594408892e-04
1.245156124899919945e+02 6.366608301961204468e-04
1.256685348278623024e+02 1.002881108087060741e-03
1.268214571657325820e+02 1.451633638088569746e-03
1.279743795036028899e+02 1.982682194664836268e-03
1.291273018414732121e+02 2.595746008192129171e-03
1.302802241793434632e+02 3.290499253102038574e-03
1.314331465172137996e+02 4.066570424298612992e-03
1.325860688550840507e+02 4.923541586025302966e-03
1.337389911929543587e+02 5.860947473742525275e-03
1.348919135308246666e+02 6.878274425295863824e-03
1.360448358686949462e+02 7.974959112429819141e-03
1.371977582065652541e+02 9.150387037416923136e-03
1.383506805444355621e+02 1.040389075179912366e-02
1.395036028823058416e+02 1.173474774473215985e-02
1.406565252201761496e+02 1.314217793654697507e-02
1.418094475580464575e+02 1.462534069835861976e-02
1.429623698959167371e+02 1.618333129996644970e-02
1.441152922337870166e+02 1.781517666477165987e-02
1.452682145716573245e+02 1.951983028054215738e-02
1.464211369095276041e+02 2.129616607657721164e-02
1.475740592473979120e+02 2.314297102850799634e-02
1.487269815852682200e+02 2.505893618800000833e-02
1.498799039231384995e+02 2.704264575109442681e-02
1.510328262610088075e+02 2.909256366905584035e-02
1.521857485988791154e+02 3.120701716003028772e-02
1.533386709367493950e+02 3.338417628549492089e-02
1.544915932746197029e+02 3.562202849408031141e-02
1.556445156124900109e+02 3.791834668083757937e-02
1.567974379503602904e+02 4.027064882553437614e-02
1.579503602882305984e+02 4.267614660593491149e-02
1.591032826261009063e+02 4.513167945498971351e-02
1.602562049639711859e+02 4.763362923392144843e-02
1.614091273018414938e+02 5.017780886679189950e-02
1.625620496397117734e+02 5.275931569645678915e-02
1.637149719775820529e+02 5.537233665035002500e-02
1.648678943154523893e+02 5.800988709557119982e-02
1.660208166533226404e+02 6.066345792574531076e-02
1.671737389911929768e+02 6.332253527823394901e-02
1.683266613290632563e+02 6.597394380854396112e-02
1.694795836669335358e+02 6.860094806011191038e-02
1.706325060048038438e+02 7.118203058159258689e-02
1.717854283426741233e+02 7.368926153704823123e-02
1.729383506805444313e+02 7.608621318728592264e-02
1.740912730184147108e+02 7.832552361652127260e-02
1.752441953562850472e+02 8.034660959640954614e-02
1.763971176941552983e+02 8.207483761293807301e-02
1.775500400320256347e+02 8.342465075994545676e-02
1.787029623698959142e+02 8.430980675952477743e-02
1.798558847077662222e+02 8.466166251500917284e-02
1.810088070456365017e+02 8.444974930158199999e-02
1.821617293835068097e+02 8.369265065579069296e-02
1.833146517213770892e+02 8.245123948079652321e-02
1.844675740592473971e+02 8.080932623581094099e-02
1.856204963971177051e+02 7.885393382901038917e-02
1.867734187349879846e+02 7.666294562767010656e-02
1.879263410728582926e+02 7.430048188884003091e-02
1.890792634107286005e+02 7.181702174258691729e-02
1.902321857485988801e+02 6.925149084591046555e-02
1.913851080864691880e+02 6.663373060625892019e-02
1.925380304243394676e+02 6.398669113693251920e-02
1.936909527622097755e+02 6.132817426911552766e-02
1.948438751000800551e+02 5.867214999400001407e-02
1.959967974379503914e+02 5.602972777988361741e-02
1.971497197758206426e+02 5.340986695996553096e-02
1.983026421136909789e+02 5.081989592434797698e-02
1.994555644515612585e+02 4.826589307070745793e-02
2.006084867894315664e+02 4.575296816159269558e-02
2.017614091273018460e+02 4.328547179237129949e-02
2.029143314651721539e+02 4.086715269921604304e-02
2.040672538030424334e+02 3.850127695606395811e-02
2.052201761409127130e+02 3.619071910139957937e-02
2.063730984787830209e+02 3.393803241365279250e-02
2.075260208166533005e+02 3.174550356258600686e-02
2.086789431545236368e+02 2.961519545205462331e-02
2.098318654923938880e+02 2.754898106198173588e-02
2.109847878302642243e+02 2.554857037319501270e-02
2.121377101681345323e+02 2.361553193423559724e-02
2.132906325060048118e+02 2.175131024622424872e-02
2.144435548438750914e+02 1.995723986001697245e-02
2.155964771817453993e+02 1.823455687073416778e-02
2.167493995196156789e+02 1.658440833840273826e-02
2.179023218574859868e+02 1.500786004566931515e-02
2.190552441953563232e+02 1.350590291412260245e-02
2.202081665332265743e+02 1.207945833245671098e-02
2.213610888710968823e+02 1.072938259708192295e-02
2.225140112089671902e+02 9.456470625061592569e-03
2.236669335468374697e+02 8.261459067433772618e-03
2.248198558847077777e+02 7.145028926066362800e-03
2.259727782225780572e+02 6.107807757450510119e-03
2.271257005604483652e+02 5.150371531214097826e-03
2.282786228983186447e+02 4.273246198597834000e-03
2.294315452361889811e+02 3.476909016080678271e-03
2.305844675740592606e+02 2.761789661190877827e-03
2.317373899119295402e+02 2.128271170891470401e-03
2.328903122497998197e+02 1.576690727484621971e-03
2.340432345876701561e+02 1.107340312469402843e-03
2.351961569255404356e+02 7.204672450221218669e-04
2.363490792634107436e+02 4.162746185813950427e-04
2.375020016012810515e+02 1.949216463309698096e-04
2.386549239391513311e+02 5.652392398535785136e-05
2.398078462770216106e+02 1.153616231311840648e-06
2.409607686148919186e+02 2.883957128491443771e-05
2.421136909527622265e+02 1.395673662953651338e-04
2.432666132906325345e+02 3.332792846730272488e-04
2.444195356285028140e+02 6.098742248038995038e-04
2.455724579663730651e+02 9.692075379775625960e-04
2.467253803042434015e+02 1.411090791656869443e-03
2.478783026421137095e+02 1.935291452392124637e-03
2.490312249799839890e+02 2.541532480674128965e-03
2.501841473178543254e+02 3.229491827778170360e-03
2.513370696557246049e+02 3.998801822047950288e-03
2.524899919935948560e+02 4.849048429079841870e-03
2.536429143314651640e+02 5.779770366693888842e-03
2.547958366693355003e+02 6.790458051350714563e-03
2.559487590072057799e+02 7.880552347558184359e-03
2.571016813450760878e+02 9.049443085593387309e-03
2.582546036829464242e+02 1.029646730526689348e-02
2.594075260208166469e+02 1.162090717407601552e-02
2.605604483586869264e+02 1.302198751646177488e-02
2.617133706965572628e+02 1.449887287636326093e-02
2.628662930344275992e+02 1.605066401702957488e-02
2.640192153722978787e+02 1.767639373900012703e-02
2.651721377101681014e+02 1.937502186785542216e-02
2.663250600480384378e+02 2.114542922587232462e-02
2.674779823859087173e+02 2.298641035341984079e-02
2.686309047237790537e+02 2.489666468336860367e-02
2.697838270616493332e+02 2.687478579010849772e-02
2.709367493995196696e+02 2.891924822740672002e-02
2.720896717373898923e+02 3.102839132719871842e-02
2.732425940752602287e+02 3.320039914175357265e-02
2.743955164131305082e+02 3.543327545670377915e-02
2.755484387510007878e+02 3.772481245693551366e-02
2.767013610888711241e+02 4.007255115541629581e-02
2.778542834267414037e+02 4.247373104522449844e-02
2.790072057646116832e+02 4.492522553327790713e-02
2.801601281024819627e+02 4.742345845346499639e-02
2.813130504403522991e+02 4.996429518222007121e-02
2.824659727782225787e+02 5.254289936813752449e-02
2.836188951160929150e+02 5.515354272161105548e-02
2.847718174539631946e+02 5.778935025029427464e-02
2.859247397918334741e+02 6.044195619206134407e-02
2.870776621297037536e+02 6.310103601222301350e-02
2.882305844675740332e+02 6.575366664307416564e-02
2.893835068054443695e+02 6.838345093117956242e-02
2.905364291433146491e+02 7.096932605398427463e-02
2.916893514811849855e+02 7.348396996398751102e-02
2.928422738190552082e+02 7.589175305115332393e-02
2.939951961569255445e+02 7.814631975638128281e-02
2.951481184947958241e+02 8.018825340562103776e-02
2.963010408326661036e+02 8.194404760062080906e-02
2.974539631705364400e+02 8.332878114736499975e-02
2.986068855084067195e+02 8.425566694632972975e-02
2.997598078462769990e+02 8.465377035842662490e-02
3.009127301841472786e+02 8.448880986787103697e-02
3.020656525220176150e+02 8.377529230776883939e-02
3.032185748598878945e+02 8.257121108513562624e-02
3.043714971977582309e+02 8.095928761834245146e-02
3.055244195356284536e+02 7.902686929422736428e-02
3.066773418734987899e+02 7.685286734993049262e-02
3.078302642113690695e+02 7.450258827112836435e-02
3.089831865492394058e+02 7.202758161660835490e-02
3.101361088871096854e+02 6.946764054417638168e-02
3.112890312249800218e+02 6.685327392334017294e-02
3.124419535628502445e+02 6.420793322827919591e-02
3.135948759007205808e+02 6.154979363453161323e-02
3.147477982385908604e+02 5.889310317960808061e-02
3.159007205764611967e+02 5.624917948549327390e-02
3.170536429143314763e+02 5.362713899006466001e-02
3.182065652522018127e+02 5.103442982873414302e-02
3.193594875900720353e+02 4.847722265416303661e-02
3.205124099279423717e+02 4.596069910532724068e-02
3.216653322658126513e+02 4.348926641974389107e-02
3.228182546036829876e+02 4.106671848577549133e-02
3.239711769415532672e+02 3.869635778571026141e-02
3.251240992794235467e+02 3.638108855339878406e-02
3.262770216172938262e+02 3.412348856454602841e-02
3.274299439551641058e+02 3.192586492797160058e-02
3.285828662930344422e+02 2.979029779342922540e-02
3.297357886309047785e+02 2.771867485558163549e-02
3.308887109687750581e+02 2.571271878955647475e-02
3.320416333066452808e+02 2.377400921480710486e-02
3.331945556445156171e+02 2.190400039098499424e-02
3.343474779823859535e+02 2.010403556041011341e-02
3.355004003202562330e+02 1.837535863742480527e-02
3.366533226581265126e+02 1.671912378474908756e-02
3.378062449959967921e+02 1.513640329641329635e-02
3.389591673338670716e+02 1.362819411536722765e-02
3.401120896717374080e+02 1.219542324401816889e-02
3.412650120096076876e+02 1.083895225220867300e-02
3.424179343474779671e+02 9.559581045507045335e-03
3.435708566853482466e+02 8.358051024257696568e-03
3.447237790232186398e+02 7.235047738374280647e-03
3.458767013610888625e+02 6.191203122779353682e-03
3.470296236989591421e+02 5.227097382421255246e-03
3.481825460368294216e+02 4.343260583073623934e-03
3.493354683746998148e+02 3.540173993844141290e-03
3.504883907125700944e+02 2.818271219065907138e-03
3.516413130504403739e+02 2.177939150439293231e-03
3.527942353883105966e+02 1.619518764813833705e-03
3.539471577261809898e+02 1.143305788362153829e-03
3.551000800640512693e+02 7.495512441169172122e-04
3.562530024019215489e+02 4.384618966062543179e-04
3.574059247397918284e+02 2.102006045698582193e-04
3.585588470776621648e+02 6.488659037238966225e-05
3.597117694155324443e+02 2.595632609395493445e-06
3.608646917534027239e+02 2.336018652543401768e-05
3.620176140912730034e+02 1.271694351207198928e-04
3.631705364291433398e+02 3.139692721472503076e-04
3.643234587670136193e+02 5.836622166025319004e-04
3.654763811048839557e+02 9.361072566808159665e-04
3.666293034427541784e+02 1.371119619455412166e-03
3.677822257806244579e+02 1.888470460751911833e-03
3.689351481184947943e+02 2.487886467691505232e-03
3.700880704563650738e+02 3.169049364138226688e-03
3.712409927942354102e+02 3.931595306748533226e-03
3.723939151321056329e+02 4.775114156341112373e-03
3.735468374699759693e+02 5.699148605792949025e-03
3.746997598078462488e+02 6.703193141516569815e-03
3.758526821457165852e+02 7.786692810512677379e-03
3.770056044835869216e+02 8.949041758897161719e-03
3.781585268214572011e+02 1.018958150032843457e-02
3.793114491593274238e+02 1.150759886353127856e-02
3.804643714971977602e+02 1.290232355671195978e-02
3.816172938350680397e+02 1.437292527239530937e-02
3.827702161729383761e+02 1.591851023832436748e-02
3.839231385108086556e+02 1.753811709747322631e-02
3.850760608486789351e+02 1.923071197150610923e-02
3.862289831865492147e+02 2.099518252530040152e-02
3.873819055244195511e+02 2.283033080289010447e-02
3.885348278622898306e+02 2.473486454396820605e-02
3.896877502001601101e+02 2.670738661022524149e-02
3.908406725380303897e+02 2.874638204588901222e-02
3.919935948759007829e+02 3.085020215800384283e-02
3.931465172137710056e+02 3.301704481691381671e-02
3.942994395516412851e+02 3.524492992872899078e-02
3.954523618895115646e+02 3.753166869481188578e-02
3.966052842273819579e+02 3.987482481364128251e-02
3.977582065652522374e+02 4.227166514789655605e-02
3.989111289031225169e+02 4.471909650236157580e-02
4.000640512409927396e+02 4.721358393253432401e-02
4.012169735788631328e+02 4.975104427938802087e-02
4.023698959167334124e+02 5.232670618631971027e-02
4.035228182546036919e+02 5.493492439149466611e-02
4.046757405924739714e+02 5.756893117340727839e-02
4.058286629303443078e+02 6.022050089138576701e-02
4.069815852682145874e+02 6.287949393263082831e-02
4.081345076060848669e+02 6.553323347271287902e-02
4.092874299439551464e+02 6.816565243836619770e-02
4.104403522818254260e+02 7.075613160700859605e-02
4.115932746196957623e+02 7.327794246309300707e-02
4.127461969575660419e+02 7.569623650263047898e-02
4.138991192954363214e+02 7.796564764346808341e-02
4.150520416333066009e+02 8.002791723683130853e-02
4.162049639711769373e+02 8.181068256121755422e-02
4.173578863090472737e+02 8.322972327497754619e-02
4.185108086469175532e+02 8.419783327569939357e-02
4.196637309847877759e+02 8.464193846047485259e-02
4.208166533226581123e+02 8.452403486969420343e-02
4.219695756605284487e+02 8.385451302913778104e-02
4.231224979983987282e+02 8.268834844298728060e-02
4.242754203362690646e+02 8.110702883596657142e-02
4.254283426741393441e+02 7.919813529041293265e-02
4.265812650120096237e+02 7.704157297877885224e-02
4.277341873498799032e+02 7.470383527002510959e-02
4.288871096877501827e+02 7.223755697916890706e-02
4.300400320256205191e+02 6.968341630663522912e-02
4.311929543634907986e+02 6.707260514122900807e-02
4.323458767013610782e+02 6.442908866830536485e-02
4.334987990392313577e+02 6.177142472721573740e-02
4.346517213771016941e+02 5.911414627346181505e-02
4.358046437149719736e+02 5.646878410582270580e-02
4.369575660528422532e+02 5.384461543644122883e-02
4.381104883907126464e+02 5.124921083751504680e-02
4.392634107285829259e+02 4.868883520380646451e-02
4.404163330664531486e+02 4.616874352959681599e-02
4.415692554043234281e+02 4.369340080479485605e-02
4.427221777421937645e+02 4.126664691093880760e-02
4.438751000800641009e+02 3.889182138139754552e-02
4.450280224179343804e+02 3.657185864089068650e-02
4.461809447558046031e+02 3.430936134761988082e-02
4.473338670936749395e+02 3.210665735135449089e-02
4.484867894315452759e+02 2.996584428614436357e-02
4.496397117694155554e+02 2.788882475101328584e-02
4.507926341072858349e+02 2.587733426722807831e-02
4.519455564451561145e+02 2.393296364752517391e-02
4.530984787830264509e+02 2.205717700928685326e-02
4.542514011208967304e+02 2.025132636716705375e-02
4.554043234587670099e+02 1.851666352099226934e-02
4.565572457966372895e+02 1.685434979073281020e-02
4.577101681345075690e+02 1.526546402691620306e-02
4.588630904723779622e+02 1.375100923130825013e-02
