Theta (degrees)	Normalized Energy
0.000000000000000000e+00 1.718734185193252838e-15
7.203601800900449881e-01 1.914907182305378673e-04
1.440720360180089976e+00 7.659239344414566723e-04
2.161080540270135408e+00 1.723182809375031809e-03
2.881440720360179952e+00 3.063072531296934416e-03
3.601800900450225384e+00 4.785320195752727421e-03
4.322161080540270817e+00 6.889574635725132998e-03
5.042521260630314472e+00 9.375406200466456993e-03
5.762881440720359905e+00 1.224230648115080290e-02
6.483241620810405337e+00 1.548968798056343625e-02
7.203601800900450769e+00 1.911688372387452053e-02
7.923961980990495313e+00 2.312314680669969383e-02
8.644322161080541633e+00 2.750764987615490417e-02
9.364682341170585289e+00 3.226948453998913086e-02
1.008504252126062894e+01 3.740766069780168679e-02
1.080540270135067615e+01 4.292110578810003074e-02
1.152576288144071981e+01 4.880866394336830921e-02
1.224612306153076524e+01 5.506909504496464852e-02
1.296648324162081067e+01 6.170107366786219127e-02
1.368684342171085433e+01 6.870318790464133296e-02
1.440720360180090154e+01 7.607393805616573246e-02
1.512756378189094697e+01 8.381173517503419379e-02
1.584792396198099063e+01 9.191489944604747109e-02
1.656828414207103606e+01 1.003816583857001510e-01
1.728864432216108327e+01 1.092101448405858738e-01
1.800900450225112337e+01 1.183983947616295551e-01
1.872936468234117058e+01 1.279443447280919077e-01
1.944972486243121779e+01 1.378458291918515655e-01
2.017008504252125789e+01 1.481005774081463333e-01
2.089044522261130510e+01 1.587062100143578625e-01
2.161080540270135231e+01 1.696602352131175162e-01
2.233116558279139241e+01 1.809600445095239651e-01
2.305152576288143962e+01 1.926029079449695647e-01
2.377188594297148683e+01 2.045859687617014588e-01
2.449224612306153048e+01 2.169062374222151535e-01
2.521260630315157769e+01 2.295605848960085849e-01
2.593296648324162135e+01 2.425457351125971661e-01
2.665332666333166500e+01 2.558582564637377765e-01
2.737368684342170866e+01 2.694945522190392850e-01
2.809404702351175587e+01 2.834508496966281488e-01
2.881440720360180308e+01 2.977231880045983492e-01
2.953476738369184673e+01 3.123074041371350362e-01
3.025512756378189394e+01 3.271991171723451219e-01
3.097548774387193760e+01 3.423937102737083515e-01
3.169584792396198125e+01 3.578863101442349426e-01
3.241620810405202491e+01 3.736717635173067986e-01
3.313656828414207212e+01 3.897446101914112115e-01
3.385692846423211932e+01 4.060990520216143373e-01
3.457728864432216653e+01 4.227289171671961276e-01
3.529764882441220664e+01 4.396276187560339554e-01
3.601800900450224674e+01 4.567881069574314945e-01
3.673836918459229395e+01 4.742028132476384661e-01
3.745872936468234116e+01 4.918635853980491968e-01
3.817908954477238836e+01 5.097616114022325284e-01
3.889944972486243557e+01 5.278873301705647725e-01
3.961980990495248278e+01 5.462303263412272569e-01
4.034017008504251578e+01 5.647792059603268244e-01
4.106053026513257009e+01 5.835214490428825007e-01
4.178089044522261020e+01 6.024432341030638849e-01
4.250125062531265741e+01 6.215292285924897131e-01
4.322161080540270461e+01 6.407623377530506925e-01
4.394197098549275182e+01 6.601234026125701870e-01
4.466233116558278482e+01 6.795908356509148263e-01
4.538269134567283203e+01 6.991401799636319803e-01
4.610305152576287924e+01 7.187435744739192334e-01
4.682341170585292645e+01 7.383691038472851575e-01
4.754377188594297365e+01 7.579800072712160608e-01
4.826413206603301376e+01 7.775337153561143744e-01
4.898449224612306097e+01 7.969806795731696480e-01
4.970485242621310817e+01 8.162629549080906433e-01
5.042521260630315538e+01 8.353124957958272256e-01
5.114557278639320259e+01 8.540491315925279325e-01
5.186593296648324269e+01 8.723782071949509609e-01
5.258629314657328280e+01 8.901879173044519034e-01
5.330665332666333001e+01 9.073464449814582222e-01
5.402701350675337721e+01 9.236991578942546077e-01
5.474737368684341732e+01 9.390663424116726388e-01
5.546773386693346453e+01 9.532422790051920947e-01
5.618809404702351173e+01 9.659968542168001493e-01
5.690845422711355894e+01 9.770812446746439672e-01
5.762881440720360615e+01 9.862392300742677254e-01
5.834917458729364625e+01 9.932249905395508227e-01
5.906953476738369346e+01 9.978264790618229796e-01
5.978989494747374067e+01 9.998908077300190378e-01
6.051025512756378788e+01 9.993456666877006400e-01
6.123061530765383509e+01 9.962103842519326458e-01
6.195097548774387519e+01 9.905929115264409113e-01
6.267133566783392240e+01 9.826737711860819013e-01
6.339169584792396250e+01 9.726821663451599154e-01
6.411205602801400971e+01 9.608708200591972171e-01
6.483241620810404982e+01 9.474946571743566581e-01
6.555277638819410413e+01 9.327957254443511870e-01
6.627313656828414423e+01 9.169943937484911212e-01
6.699349674837418434e+01 9.002855642944075365e-01
6.771385692846423865e+01 8.828382881432722540e-01
6.843421710855427875e+01 8.647973707278299171e-01
6.915457728864433307e+01 8.462859387911284559e-01
6.987493746873437317e+01 8.274083113591356176e-01
7.059529764882441327e+01 8.082528005843564456e-01
7.131565782891445338e+01 7.888942574474612224e-01
7.203601800900449348e+01 7.693962919268132472e-01
7.275637818909453358e+01 7.498131607427300782e-01
7.347673836918458790e+01 7.301913472868211130e-01
7.419709854927464221e+01 7.105708712193327115e-01
7.491745872936468231e+01 6.909863679813690318e-01
7.563781890945473663e+01 6.714679762209148084e-01
7.635817908954477673e+01 6.520420667579079899e-01
7.707853926963481683e+01 6.327318417592362465e-01
7.779889944972487115e+01 6.135578280240636673e-01
7.851925962981491125e+01 5.945382840253971013e-01
7.923961980990496556e+01 5.756895367182357504e-01
7.995997998999499146e+01 5.570262610960052818e-01
8.068034017008503156e+01 5.385617129944298975e-01
8.140070035017508587e+01 5.203079236269289032e-01
8.212106053026514019e+01 5.022758627099971340e-01
8.284142071035518029e+01 4.844755757299704646e-01
8.356178089044522039e+01 4.669162998532286335e-01
8.428214107053527471e+01 4.496065621395439194e-01
8.500250125062531481e+01 4.325542630416377987e-01
8.572286143071536912e+01 4.157667476295919817e-01
8.644322161080540923e+01 3.992508665398170065e-01
8.716358179089544933e+01 3.830130282936090036e-01
8.788394197098550364e+01 3.670592443429853691e-01
8.860430215107552954e+01 3.513951679678711248e-01
8.932466233116556964e+01 3.360261279584449978e-01
9.004502251125562395e+01 3.209571578608432785e-01
9.076538269134566406e+01 3.061930214368467351e-01
9.148574287143571837e+01 2.917382348831804029e-01
9.220610305152575847e+01 2.775970862694526753e-01
9.292646323161579858e+01 2.637736525821169908e-01
9.364682341170585289e+01 2.502718147022665041e-01
9.436718359179589299e+01 2.370952705954400275e-01
9.508754377188594731e+01 2.242475469504104646e-01
9.580790395197598741e+01 2.117320094689317256e-01
9.652826413206602751e+01 1.995518719795502938e-01
9.724862431215608183e+01 1.877102045238310257e-01
9.796898449224612193e+01 1.762099405427147158e-01
9.868934467233617625e+01 1.650538832730478189e-01
9.940970485242621635e+01 1.542447114494315541e-01
1.001300650325162565e+02 1.437849843938620864e-01
1.008504252126063108e+02 1.336771465646477142e-01
1.015707853926963509e+02 1.239235316268843812e-01
1.022911455727864052e+02 1.145263660987768939e-01
1.030115057528764453e+02 1.054877726211629063e-01
1.037318659329664854e+02 9.680977289179695799e-02
1.044522261130565397e+02 8.849429030065289470e-02
1.051725862931465656e+02 8.054315229827088696e-02
1.058929464732366057e+02 7.295809252513929533e-02
1.066133066533266600e+02 6.574075272688442717e-02
1.073336668334167001e+02 5.889268447705327258e-02
1.080540270135067544e+02 5.241535072667866807e-02
1.087743871935967945e+02 4.631012719766652852e-02
1.094947473736868346e+02 4.057830363499857762e-02
1.102151075537768889e+02 3.522108493100020721e-02
1.109354677338669291e+02 3.023959213342788596e-02
1.116558279139569834e+02 2.563486334777027517e-02
1.123761880940470235e+02 2.140785454285413711e-02
1.130965482741370636e+02 1.755944026786932649e-02
1.138169084542271179e+02 1.409041428791972875e-02
1.145372686343171580e+02 1.100149014430826244e-02
1.152576288144072123e+02 8.293301644950176049e-03
1.159779889944972524e+02 5.966403289720235113e-03
1.166983491745872925e+02 4.021270634717798685e-03
1.174187093546773184e+02 2.458300598894162629e-03
1.181390695347673869e+02 1.277811715979456503e-03
1.188594297148574128e+02 4.800443340311189000e-04
1.195797898949474813e+02 6.516076444557561322e-05
1.203001500750375072e+02 3.324538186739696091e-05
1.210205102551275758e+02 3.843046758767914087e-04
1.217408704352176017e+02 1.118267254971912553e-03
1.224612306153076702e+02 2.234983802845980517e-03
1.231815907953976961e+02 3.734226986555313783e-03
1.239019509754877504e+02 5.615691315795390617e-03
1.246223111555777905e+02 7.878992951862683752e-03
1.253426713356678448e+02 1.052366946464541354e-02
1.260630315157578707e+02 1.354917953525159452e-02
1.267833916958479250e+02 1.695490260162066040e-02
1.275037518759379651e+02 2.074013844358664829e-02
1.282241120560280194e+02 2.490410670365128878e-02
1.289444722361180595e+02 2.944594633865537867e-02
1.296648324162080996e+02 3.436471499722489747e-02
1.303851925962981397e+02 3.965938831678293003e-02
1.311055527763882083e+02 4.532885913320698623e-02
1.318259129564782484e+02 5.137193659530613771e-02
1.325462731365682885e+02 5.778734517500723478e-02
1.332666333166583286e+02 6.457372356324000973e-02
1.339869934967483687e+02 7.172962343993012635e-02
1.347073536768384088e+02 7.925350810514429634e-02
1.354277138569284773e+02 8.714375095666732074e-02
1.361480740370184890e+02 9.539863379737116567e-02
1.368684342171085575e+02 1.040163449535224660e-01
1.375887943971985976e+02 1.129949771827452598e-01
1.383091545772886661e+02 1.223325253473421526e-01
1.390295147573786778e+02 1.320268838255790611e-01
1.397498749374687463e+02 1.420758436296652716e-01
1.404702351175587864e+02 1.524770891948107887e-01
1.411905952976488265e+02 1.632281947988237503e-01
1.419109554777388666e+02 1.743266205659159684e-01
1.426313156578289068e+02 1.857697080015887903e-01
1.433516758379189469e+02 1.975546749978436545e-01
1.440720360180089870e+02 2.096786102387634410e-01
1.447923961980990555e+02 2.221384669260025868e-01
1.455127563781890672e+02 2.349310557312670467e-01
1.462331165582791357e+02 2.480530368684381037e-01
1.469534767383691758e+02 2.615009111607384251e-01
1.476738369184592443e+02 2.752710099582230674e-01
1.483941970985492844e+02 2.893594837370737083e-01
1.491145572786393245e+02 3.037622891836979089e-01
1.498349174587293646e+02 3.184751745330541839e-01
1.505552776388194047e+02 3.334936628903546474e-01
1.512756378189094733e+02 3.488130332173050574e-01
1.519959979989994849e+02 3.644282986060913276e-01
1.527163581790895535e+02 3.803341813951471306e-01
1.534367183591795936e+02 3.965250845965242465e-01
1.541570785392696337e+02 4.129950590032707147e-01
1.548774387193596738e+02 4.297377652216352595e-01
1.555977988994497423e+02 4.467464297224592595e-01
1.563181590795397540e+02 4.640137938221003400e-01
1.570385192596298225e+02 4.815320542775888835e-01
1.577588794397198626e+02 4.992927939031421292e-01
1.584792396198099311e+02 5.172869002728016641e-01
1.591995997998999428e+02 5.355044701503091087e-01
1.599199599799899829e+02 5.539346967624605433e-01
1.606403201600800514e+02 5.725657363792949761e-01
1.613606803401700631e+02 5.913845498528055300e-01
1.620810405202601316e+02 6.103767137538945731e-01
1.628014007003501717e+02 6.295261944874737114e-01
1.635217608804402403e+02 6.488150771974314779e-01
1.642421210605302804e+02 6.682232393285658656e-01
1.649624812406203205e+02 6.877279563133377183e-01
1.656828414207103606e+02 7.073034239188521477e-01
1.664032016008004291e+02 7.269201782576257820e-01
1.671235617808904408e+02 7.465443903115428492e-01
1.678439219609804809e+02 7.661370071189017583e-01
1.685642821410705494e+02 7.856527068126445412e-01
1.692846423211605611e+02 8.050386301468975825e-01
1.700050025012506296e+02 8.242328483912946258e-01
1.707253626813406697e+02 8.431625291201386707e-01
1.714457228614307382e+02 8.617417721293761934e-01
1.721660830415207499e+02 8.798691153323411340e-01
1.728864432216108185e+02 8.974247674792700247e-01
1.736068034017008586e+02 9.142677290870857565e-01
1.743271635817908987e+02 9.302331380582178344e-01
1.750475237618809388e+02 9.451304433396068294e-01
1.757678839419710073e+02 9.587433691343175690e-01
1.764882441220610190e+02 9.708330244952878552e-01
1.772086043021510591e+02 9.811457625229387247e-01
1.779289644822411276e+02 9.894271665345539812e-01
1.786493246623311393e+02 9.954424202630428598e-01
1.793696848424212078e+02 9.990011148659982965e-01
1.800900450225112479e+02 9.999817974804384724e-01
1.808104052026013164e+02 9.983497677725855501e-01
1.815307653826913281e+02 9.941624736912514360e-01
1.822511255627813966e+02 9.875606539227936853e-01
1.829714857428714367e+02 9.787482348198585091e-01
1.836918459229614768e+02 9.679671444659725399e-01
1.844122061030515169e+02 9.554732801853043078e-01
1.851325662831415286e+02 9.415176548734809359e-01
1.858529264632315972e+02 9.263340291966717377e-01
1.865732866433216373e+02 9.101323899152579111e-01
1.872936468234117058e+02 8.930967723073248710e-01
1.880140070035017175e+02 8.753858558455627215e-01
1.887343671835917860e+02 8.571350724228529172e-01
1.894547273636818261e+02 8.384593613432274051e-01
1.901750875437718946e+02 8.194560437155402610e-01
1.908954477238619063e+02 8.002075314685344054e-01
1.916158079039519748e+02 7.807837414008872434e-01
1.923361680840420433e+02 7.612441753161725000e-01
1.930565282641320550e+02 7.416396754713010520e-01
1.937768884442221236e+02 7.220138869930049497e-01
1.944972486243121637e+02 7.024044667702545874e-01
1.952176088044022322e+02 6.828440785370386568e-01
1.959379689844922439e+02 6.633612104688542122e-01
1.966583291645823124e+02 6.439808468673084985e-01
1.973786893446723525e+02 6.247250205676367907e-01
1.980990495247623926e+02 6.056132681244753568e-01
1.988194097048524327e+02 5.866630058309241225e-01
1.995397698849425012e+02 5.678898412481786506e-01
2.002601300650325129e+02 5.493078321311798407e-01
2.009804902451225814e+02 5.309297023575610952e-01
2.017008504252126215e+02 5.127670226235648832e-01
2.024212106053026332e+02 4.948303621858148316e-01
2.031415707853927017e+02 4.771294167349549586e-01
2.038619309654827418e+02 4.596731165295914745e-01
2.045822911455728104e+02 4.424697181502774135e-01
2.053026513256628220e+02 4.255268826154400830e-01
2.060230115057528906e+02 4.088517421033315280e-01
2.067433716858429307e+02 3.924509571230054283e-01
2.074637318659329708e+02 3.763307656520242239e-01
2.081840920460230109e+02 3.604970254955681686e-01
2.089044522261130794e+02 3.449552509069313544e-01
2.096248124062030911e+02 3.297106443345769189e-01
2.103451725862931312e+02 3.147681240177605533e-01
2.110655327663831997e+02 3.001323480350888140e-01
2.117858929464732114e+02 2.858077353135546339e-01
2.125062531265632799e+02 2.717984840255641132e-01
2.132266133066533200e+02 2.581085877352328750e-01
2.139469734867433885e+02 2.447418495998801291e-01
2.146673336668334002e+02 2.317018948869756512e-01
2.153876938469234688e+02 2.189921820279839282e-01
2.161080540270135089e+02 2.066160123986799102e-01
2.168284142071035490e+02 1.945765389880103891e-01
2.175487743871935891e+02 1.828767740949138187e-01
2.182691345672836007e+02 1.715195961731372509e-01
2.189894947473736693e+02 1.605077559275596699e-01
2.197098549274637094e+02 1.498438817515272692e-01
2.204302151075537779e+02 1.395304845831392138e-01
2.211505752876437896e+02 1.295699622476753354e-01
2.218709354677338581e+02 1.199646033451922111e-01
2.225912956478238982e+02 1.107165907344395961e-01
2.233116558279139667e+02 1.018280046579831816e-01
2.240320160080039784e+02 9.330082554773477810e-02
2.247523761880940469e+02 8.513693654539605804e-02
2.254727363681840586e+02 7.733812576803390793e-02
2.261930965482741271e+02 6.990608834535523564e-02
2.269134567283641672e+02 6.284242825228156248e-02
2.276338169084542358e+02 5.614865995732083032e-02
2.283541770885442475e+02 4.982620990512341697e-02
2.290745372686343160e+02 4.387641784932441030e-02
2.297948974487243561e+02 3.830053804992298444e-02
2.305152576288144246e+02 3.309974034778947333e-02
2.312356178089044363e+02 2.827511112749249433e-02
2.319559779889945048e+02 2.382765417825162546e-02
2.326763381690845733e+02 1.975829146175006601e-02
2.333966983491745850e+02 1.606786379435266518e-02
2.341170585292646251e+02 1.275713145060935853e-02
2.348374187093546368e+02 9.826774693812084099e-03
2.355577788894447622e+02 7.277394238761376519e-03
2.362781390695347739e+02 5.109511651210508001e-03
2.369984992496248140e+02 3.323569687705643910e-03
2.377188594297148256e+02 1.919932579130573420e-03
2.384392196098049226e+02 8.988862605392870840e-04
2.391595797898949627e+02 2.606385494462855551e-04
2.398799399699850028e+02 5.319274236650125923e-06
2.406003001500750145e+02 1.329803539247611252e-04
2.413206603301651114e+02 6.435958298761155875e-04
2.420410205102551515e+02 1.537061849983801165e-03
2.427613806903451632e+02 2.813196604947285420e-03
2.434817408704352033e+02 4.471740216225555779e-03
2.442021010505252150e+02 6.512354574481263488e-03
2.449224612306153404e+02 8.934623127200176651e-03
2.456428214107053520e+02 1.173805061327135545e-02
2.463631815907953921e+02 1.492206274229628156e-02
2.470835417708854038e+02 1.848600581533639889e-02
2.478039019509755008e+02 2.242914628377765465e-02
2.485242621310655409e+02 2.675067024185789205e-02
2.492446223111555810e+02 3.144968284812202364e-02
2.499649824912455927e+02 3.652520767014601905e-02
2.506853426713356896e+02 4.197618594601661840e-02
2.514057028514257297e+02 4.780147575540471400e-02
2.521260630315157414e+02 5.399985109166888231e-02
2.528464232116057815e+02 6.057000082578697930e-02
2.535667833916958500e+02 6.751052755124214988e-02
2.542871435717859185e+02 7.481994629782955097e-02
2.550075037518759302e+02 8.249668310071822663e-02
2.557278639319659703e+02 9.053907340924788327e-02
2.564482241120560388e+02 9.894536031792766639e-02
2.571685842921460790e+02 1.077136925998932182e-01
2.578889444722361191e+02 1.168421225201714958e-01
2.586093046523261592e+02 1.263286034033951344e-01
2.593296648324161993e+02 1.361709869269052686e-01
2.600500250125062394e+02 1.463670201062714227e-01
2.607703851925962795e+02 1.569143419356430480e-01
2.614907453726863196e+02 1.678104796400995413e-01
2.622111055527764165e+02 1.790528444909509631e-01
2.629314657328663998e+02 1.906387271277853734e-01
2.636518259129564967e+02 2.025652923229396829e-01
2.643721860930465368e+02 2.148295731141031395e-01
2.650925462731365769e+02 2.274284642198310114e-01
2.658129064532266170e+02 2.403587146391651108e-01
2.665332666333166571e+02 2.536169193212488571e-01
2.672536268134067541e+02 2.671995097723101065e-01
2.679739869934967373e+02 2.811027434459458241e-01
2.686943471735867774e+02 2.953226917367722248e-01
2.694147073536768175e+02 3.098552263673168827e-01
2.701350675337669145e+02 3.246960039215587290e-01
2.708554277138569546e+02 3.398404482353386546e-01
2.715757878939469947e+02 3.552837303019688031e-01
2.722961480740369780e+02 3.710207452889751623e-01
2.730165082541270749e+02 3.870460861868305069e-01
2.737368684342171150e+02 4.033540135196198584e-01
2.744572286143071551e+02 4.199384204375065099e-01
2.751775887943971952e+02 4.367927923767180864e-01
2.758979489744872922e+02 4.539101603092134951e-01
2.766183091545773323e+02 4.712830464040242417e-01
2.773386693346673155e+02 4.889034006762241757e-01
2.780590295147573556e+02 5.067625268967843599e-01
2.787793896948473957e+02 5.248509956624529682e-01
2.794997498749374927e+02 5.431585420617999205e-01
2.802201100550275328e+02 5.616739447987493250e-01
2.809404702351175729e+02 5.803848829203485105e-01
2.816608304152075561e+02 5.992777654055109204e-01
2.823811905952976531e+02 6.183375277630797084e-01
2.831015507753876932e+02 6.375473884066031882e-01
2.838219109554777333e+02 6.568885558576978978e-01
2.845422711355677734e+02 6.763398757049701171e-01
2.852626313156578135e+02 6.958774036337262991e-01
2.859829914957479104e+02 7.154738876659758606e-01
2.867033516758378937e+02 7.350981389575483860e-01
