Theta (degrees)	Normalized Energy
0.000000000000000000e+00 0.000000000000000000e+00
9.004502251125563461e-01 1.818310171619968519e-03
1.800900450225112692e+00 7.197017556891734981e-03
2.701350675337669038e+00 1.592108758651339731e-02
3.601800900450225384e+00 2.767224332357516234e-02
4.502251125562780842e+00 4.207391715072766880e-02
5.402701350675338077e+00 5.873298953868394401e-02
6.303151575787894423e+00 7.727082632432361042e-02
7.203601800900450769e+00 9.734194910207777385e-02
8.104052026013006227e+00 1.186423762756148165e-01
9.004502251125561685e+00 1.409109201282743584e-01
9.904952476238117143e+00 1.639264468747158865e-01
1.080540270135067615e+01 1.875032723277814672e-01
1.170585292646323161e+01 2.114860379079068764e-01
1.260630315157578885e+01 2.357447932291354964e-01
1.350675337668834430e+01 2.601706152166757269e-01
1.440720360180090154e+01 2.846718666199005154e-01
1.530765382691345877e+01 3.091710799242143870e-01
1.620810405202601245e+01 3.336024007754898046e-01
1.710855427713856969e+01 3.579095084155710649e-01
1.800900450225112337e+01 3.820439315333463703e-01
1.890945472736368416e+01 4.059636864562660152e-01
1.980990495247623429e+01 4.296321755565498668e-01
2.071035517758879507e+01 4.530172946124502165e-01
2.161080540270135231e+01 4.760907075797524701e-01
2.251125562781390599e+01 4.988272554563760730e-01
2.341170585292646322e+01 5.212044726798193972e-01
2.431215607803902046e+01 5.432021899439479773e-01
2.521260630315157769e+01 5.648022066642909289e-01
2.611305652826413137e+01 5.859880197605884522e-01
2.701350675337668861e+01 6.067445981413407408e-01
2.791395697848924584e+01 6.270581944168464039e-01
2.881440720360180308e+01 6.469161870568176376e-01
2.971485742871435320e+01 6.663069475436284028e-01
3.061530765382691754e+01 6.852197281286224184e-01
3.151575787893946767e+01 7.036445666381683228e-01
3.241620810405202491e+01 7.215722054435865784e-01
3.331665832916458214e+01 7.389940222430603223e-01
3.421710855427713938e+01 7.559019707308852754e-01
3.511755877938969661e+01 7.722885295738698419e-01
3.601800900450224674e+01 7.881466583923467661e-01
3.691845922961481108e+01 8.034697596684544640e-01
3.781890945472736831e+01 8.182516456874805444e-01
3.871935967983991844e+01 8.324865097676098502e-01
3.961980990495246857e+01 8.461689011558367612e-01
4.052026013006503291e+01 8.592937030686399469e-01
4.142071035517759015e+01 8.718561134389530842e-01
4.232116058029014027e+01 8.838516279999898417e-01
4.322161080540270461e+01 8.952760253933670365e-01
4.412206103051525474e+01 9.061253540369846871e-01
4.502251125562781198e+01 9.163959205275220565e-01
4.592296148074036211e+01 9.260842793863456324e-01
4.682341170585292645e+01 9.351872239853517010e-01
4.772386193096547657e+01 9.437017785133315906e-01
4.862431215607804091e+01 9.516251908634481005e-01
4.952476238119059104e+01 9.589549263395685808e-01
5.042521260630315538e+01 9.656886620939317822e-01
5.132566283141570551e+01 9.718242822210697573e-01
5.222611305652826275e+01 9.773598734436029778e-01
5.312656328164081998e+01 9.822937213350130259e-01
5.402701350675337721e+01 9.866243070326335962e-01
5.492746373186592734e+01 9.903503044007380129e-01
5.582791395697849168e+01 9.934705776104527652e-01
5.672836418209104181e+01 9.959841791082413298e-01
5.762881440720360615e+01 9.978903479499005025e-01
5.852926463231615628e+01 9.991885084812625051e-01
5.942971485742870641e+01 9.998782693511609754e-01
6.033016508254126364e+01 9.999594228456745171e-01
6.123061530765383509e+01 9.994319445365982268e-01
6.213106553276638522e+01 9.982959932401243019e-01
6.303151575787893535e+01 9.965519112854623884e-01
6.393196598299149258e+01 9.942002250962448384e-01
6.483241620810404982e+01 9.912416460909294624e-01
6.573286643321659994e+01 9.876770719122922593e-01
6.663331665832916428e+01 9.835075879992809522e-01
6.753376688344172862e+01 9.787344695189759136e-01
6.843421710855427875e+01 9.733591836805999264e-01
6.933466733366682888e+01 9.673833924581402011e-01
7.023511755877939322e+01 9.608089557537526915e-01
7.113556778389194335e+01 9.536379350400151500e-01
7.203601800900449348e+01 9.458725975258840402e-01
7.293646823411705782e+01 9.375154208990273963e-01
7.383691845922962216e+01 9.285690987064084689e-01
7.473736868434217229e+01 9.190365464447786126e-01
7.563781890945473663e+01 9.089209084455661669e-01
7.653826913456728676e+01 8.982255656519625431e-01
7.743871935967983688e+01 8.869541444028327115e-01
7.833916958479238701e+01 8.751105263572801496e-01
7.923961980990493714e+01 8.626988597163834926e-01
8.014007003501751569e+01 8.497235719256455155e-01
8.104052026013006582e+01 8.361893840734423433e-01
8.194097048524263016e+01 8.221013272389511295e-01
8.284142071035518029e+01 8.074647610884938542e-01
8.374187093546773042e+01 7.922853950733396156e-01
8.464232116058028055e+01 7.765693126479294994e-01
8.554277138569284489e+01 7.603229990061590726e-01
8.644322161080540923e+01 7.435533729291639027e-01
8.734367183591795936e+01 7.262678234541252165e-01
8.824412206103050949e+01 7.084742522155650368e-01
8.914457228614307382e+01 6.901811224838694248e-01
9.004502251125562395e+01 6.713975161387923940e-01
9.094547273636817408e+01 6.521332000782793514e-01
9.184592296148072421e+01 6.323987038880320988e-01
9.274637318659327434e+01 6.122054110005202832e-01
9.364682341170585289e+01 5.915656660748066509e-01
9.454727363681840302e+01 5.704929019578595106e-01
9.544772386193095315e+01 5.490017903766737373e-01
9.634817408704353170e+01 5.271084215041040855e-01
9.724862431215608183e+01 5.048305187952073503e-01
9.814907453726863196e+01 4.821876970771160620e-01
9.904952476238118209e+01 4.592017738861084442e-01
9.994997498749376064e+01 4.358971465946503421e-01
1.008504252126063108e+02 4.123012511016515558e-01
1.017508754377188609e+02 3.884451219422157542e-01
1.026513256628314110e+02 3.643640788044881784e-01
1.035517758879439612e+02 3.400985708304957722e-01
1.044522261130565255e+02 3.156952179028279515e-01
1.053526763381690756e+02 2.912080974504671071e-01
1.062531265632816400e+02 2.667003359313699917e-01
1.071535767883941901e+02 2.422460752453036437e-01
1.080540270135067544e+02 2.179328938665566207e-01
1.089544772386193046e+02 1.938647661500378094e-01
1.098549274637318547e+02 1.701656326658182450e-01
1.107553776888444048e+02 1.469836142662185596e-01
1.116558279139569834e+02 1.244958067970649701e-01
1.125562781390695335e+02 1.029134010098248370e-01
1.134567283641820836e+02 8.248652714109037942e-02
1.143571785892946480e+02 6.350766749372276088e-02
1.152576288144072123e+02 4.631169921426956521e-02
1.161580790395197624e+02 3.126975958990987903e-02
1.170585292646323126e+02 1.877361923941185673e-02
1.179589794897448627e+02 9.207981187084454330e-03
1.188594297148574128e+02 2.911124458445636665e-03
1.197598799399699629e+02 1.297321582461861988e-04
1.206603301650825273e+02 9.794605066902634539e-04
1.215607803901950774e+02 5.424521390583404018e-03
1.224612306153076702e+02 1.328413321219935363e-02
1.233616808404202203e+02 2.426329101069600591e-02
1.242621310655327704e+02 3.799657213118191185e-02
1.251625812906453206e+02 5.409172253497062516e-02
1.260630315157578707e+02 7.216392573296148694e-02
1.269634817408704208e+02 9.185767603234709644e-02
1.278639319659829852e+02 1.128575678834812940e-01
1.287643821910955353e+02 1.348911493368724901e-01
1.296648324162080996e+02 1.577270089233705486e-01
1.305652826413206640e+02 1.811705059105383486e-01
1.314657328664331999e+02 2.050586926144424005e-01
1.323661830915457642e+02 2.292552968151732873e-01
1.332666333166583286e+02 2.536461807787526723e-01
1.341670835417708645e+02 2.781354272764856028e-01
1.350675337668834572e+02 3.026420618438768195e-01
1.359679839919960216e+02 3.270973548045736923e-01
1.368684342171085575e+02 3.514426227133323755e-01
1.377688844422211218e+02 3.756274463325007806e-01
1.386693346673336578e+02 3.996082294047054728e-01
1.395697848924462221e+02 4.233470331136037212e-01
1.404702351175587864e+02 4.468106321612793086e-01
1.413706853426713224e+02 4.699697484671848113e-01
1.422711355677838867e+02 4.927984271255635429e-01
1.431715857928964226e+02 5.152735263951691014e-01
1.440720360180089870e+02 5.373742992724153122e-01
1.449724862431215513e+02 5.590820488148406930e-01
1.458729364682341156e+02 5.803798430444491174e-01
1.467733866933466516e+02 6.012522781530387217e-01
1.476738369184592443e+02 6.216852810135991003e-01
1.485742871435717802e+02 6.416659438018035289e-01
1.494747373686843446e+02 6.611823849524852692e-01
1.503751875937969089e+02 6.802236318005213667e-01
1.512756378189094733e+02 6.987795211472833667e-01
1.521760880440220092e+02 7.168406147035666365e-01
1.530765382691345735e+02 7.343981269256527611e-01
1.539769884942471094e+02 7.514438632154691877e-01
1.548774387193596738e+02 7.679701668194894859e-01
1.557778889444722381e+02 7.839698730556446948e-01
1.566783391695847740e+02 7.994362697353590841e-01
1.575787893946973384e+02 8.143630628411697714e-01
1.584792396198098743e+02 8.287443466784076840e-01
1.593796898449224386e+02 8.425745778482151005e-01
1.602801400700350314e+02 8.558485524956430668e-01
1.611805902951475673e+02 8.685613863737526863e-01
1.620810405202601316e+02 8.807084973368958236e-01
1.629814907453726960e+02 8.922855899368419275e-01
1.638819409704852603e+02 9.032886418447886312e-01
1.647823911955977962e+02 9.137138918646748875e-01
1.656828414207103606e+02 9.235578293379376191e-01
1.665832916458228965e+02 9.328171847691584251e-01
1.674837418709354608e+02 9.414889215274899747e-01
1.683841920960479968e+02 9.495702284990896747e-01
1.692846423211605611e+02 9.570585135842585300e-01
1.701850925462731539e+02 9.639513979479285011e-01
1.710855427713856898e+02 9.702467109452257432e-01
1.719859929964982541e+02 9.759424856551839333e-01
1.728864432216108185e+02 9.810369549653001897e-01
1.737868934467233544e+02 9.855285481578285323e-01
1.746873436718359187e+02 9.894158879565151388e-01
1.755877938969484546e+02 9.926977879981997432e-01
1.764882441220610190e+02 9.953732507002271968e-01
1.773886943471736117e+02 9.974414654988970064e-01
1.782891445722861476e+02 9.989018074393923863e-01
1.791895947973987120e+02 9.997538361012717756e-01
1.800900450225112479e+02 9.999972948479419754e-01
1.809904952476238122e+02 9.996321103918029971e-01
1.818909454727363482e+02 9.986583926704323266e-01
1.827913956978489125e+02 9.970764350323979563e-01
1.836918459229614484e+02 9.948867147347290052e-01
1.845922961480740128e+02 9.920898937575626242e-01
1.854927463731865487e+02 9.886868199445408845e-01
1.863931965982991699e+02 9.846785284819594697e-01
1.872936468234117058e+02 9.800662437326682630e-01
1.881940970485242701e+02 9.748513814458811266e-01
1.890945472736368060e+02 9.690355513677919586e-01
1.899949974987493704e+02 9.626205602840978148e-01
1.908954477238619063e+02 9.556084155304298555e-01
1.917958979489744706e+02 9.480013290138382676e-01
1.926963481740870634e+02 9.398017217957830294e-01
1.935967983991995993e+02 9.310122292959225332e-01
1.944972486243121637e+02 9.216357071856554617e-01
1.953976988494246996e+02 9.116752380521343513e-01
1.962981490745372639e+02 9.011341389270163260e-01
1.971985992996497998e+02 8.900159697895886346e-01
1.980990495247623642e+02 8.783245431729368446e-01
1.989994997498749285e+02 8.660639350229616396e-01
1.998999499749875213e+02 8.532384969863594515e-01
2.008004002001000572e+02 8.398528703336842760e-01
2.017008504252126215e+02 8.259120017602877839e-01
2.026013006503251574e+02 8.114211613508749421e-01
2.035017508754377218e+02 7.963859630456227023e-01
2.044022011005502577e+02 7.808123880078274848e-01
2.053026513256628220e+02 7.647068113682651269e-01
2.062031015507753580e+02 7.480760329123946617e-01
2.071035517758879223e+02 7.309273123867381372e-01
2.080040020010005151e+02 7.132684102350630440e-01
2.089044522261130510e+02 6.951076347395558352e-01
2.098049024512256153e+02 6.764538967434219341e-01
2.107053526763381512e+02 6.573167733798983559e-01
2.116058029014507156e+02 6.377065825392513876e-01
2.125062531265632799e+02 6.176344701862345188e-01
2.134067033516758443e+02 5.971125131144273679e-01
2.143071535767883802e+02 5.761538403157892008e-01
2.152076038019009729e+02 5.547727768869609166e-01
2.161080540270135089e+02 5.329850153270168089e-01
2.170085042521260732e+02 5.108078202600172535e-01
2.179089544772386091e+02 4.882602741050862671e-01
2.188094047023511735e+02 4.653635731039595380e-01
2.197098549274637094e+02 4.421413855089178502e-01
2.206103051525762737e+02 4.186202867669951422e-01
2.215107553776888096e+02 3.948302903739123182e-01
2.224112056028013740e+02 3.708054979026998432e-01
2.233116558279139667e+02 3.465848977457657853e-01
2.242121060530265311e+02 3.222133495381750978e-01
2.251125562781390670e+02 2.977428001642798416e-01
2.260130065032516313e+02 2.732337875766697732e-01
2.269134567283641672e+02 2.487572997608055447e-01
2.278139069534767316e+02 2.243970664331104981e-01
2.287143571785892959e+02 2.002523669006581186e-01
2.296148074037018034e+02 1.764414318643011126e-01
2.305152576288144246e+02 1.531054867032350664e-01
2.314157078539269889e+02 1.304134061542384093e-01
2.323161580790395249e+02 1.085667886273913307e-01
2.332166083041520892e+02 8.780496011796656841e-02
2.341170585292646251e+02 6.840892233799435174e-02
2.350175087543771895e+02 5.070253403322429880e-02
2.359179589794897254e+02 3.504834030818491930e-02
2.368184092046022897e+02 2.183479275772177292e-02
2.377188594297148256e+02 1.145189953683475002e-02
2.386193096548274184e+02 4.254662942709247671e-03
2.395197598799399259e+02 5.185317014942123545e-04
2.404202101050525187e+02 3.970957133824663051e-04
2.413206603301650546e+02 3.895476078679816281e-03
2.422211105552776189e+02 1.086940009011499141e-02
2.431215607803901548e+02 2.105032767555540738e-02
2.440220110055027476e+02 3.408713186695388336e-02
2.449224612306153404e+02 4.959087642989185724e-02
2.458229114557278763e+02 6.717210872529261190e-02
2.467233616808404406e+02 8.646604436508598113e-02
2.476238119059529765e+02 1.071460388041878958e-01
2.485242621310655409e+02 1.289282265256511684e-01
2.494247123561780768e+02 1.515706063815703553e-01
2.503251625812906411e+02 1.748692154101985086e-01
2.512256128064031770e+02 1.986531578591920200e-01
2.521260630315157414e+02 2.227795160212902859e-01
2.530265132566282773e+02 2.471286591773595720e-01
2.539269634817408416e+02 2.716001573763316412e-01
2.548274137068533776e+02 2.961093378044030167e-01
2.557278639319659703e+02 3.205844395838258754e-01
2.566283141570785915e+02 3.449642902795639898e-01
2.575287643821910706e+02 3.691964205986952852e-01
2.584292146073036633e+02 3.932355391131169831e-01
2.593296648324161993e+02 4.170422989355724308e-01
2.602301150575287920e+02 4.405822993930452180e-01
2.611305652826413279e+02 4.638252761466951091e-01
2.620310155077538639e+02 4.867444422423806705e-01
2.629314657328663998e+02 5.093159501028404756e-01
2.638319159579789925e+02 5.315184505941099591e-01
2.647323661830915285e+02 5.533327302038554274e-01
2.656328164082041212e+02 5.747414112668032260e-01
2.665332666333166571e+02 5.957287032537262883e-01
2.674337168584291931e+02 6.162801955716588065e-01
2.683341670835417290e+02 6.363826842401052453e-01
2.692346173086543217e+02 6.560240263214048850e-01
2.701350675337669145e+02 6.751930171797884128e-01
2.710355177588793936e+02 6.938792865923327779e-01
2.719359679839920432e+02 7.120732104886826619e-01
2.728364182091045222e+02 7.297658356977252403e-01
2.737368684342171150e+02 7.469488155604357971e-01
2.746373186593296509e+02 7.636143546541660498e-01
2.755377688844422437e+02 7.797551611851752940e-01
2.764382191095547796e+02 7.953644058577569176e-01
2.773386693346673155e+02 8.104356862327263267e-01
2.782391195597798514e+02 8.249629957547305326e-01
2.791395697848924442e+02 8.389406967636503509e-01
2.800400200100049801e+02 8.523634969176122622e-01
2.809404702351175729e+02 8.652264285466372273e-01
2.818409204602301088e+02 8.775248305323791742e-01
2.827413706853426447e+02 8.892543323724492188e-01
2.836418209104552375e+02 9.004108401400933159e-01
2.845422711355677734e+02 9.109905240940074922e-01
2.854427213606803662e+02 9.209898077298362962e-01
2.863431715857928452e+02 9.304053580954519953e-01
2.872436218109054948e+02 9.392340772184276654e-01
2.881440720360179739e+02 9.474730945160192430e-01
2.890445222611305667e+02 9.551197600765330975e-01
2.899449724862431026e+02 9.621716387170798912e-01
2.908454227113556954e+02 9.686265047361010128e-01
2.917458729364682313e+02 9.744823372909255932e-01
2.926463231615807672e+02 9.797373163404776708e-01
2.935467733866933031e+02 9.843898191021903665e-01
2.944472236118058959e+02 9.884384169795698005e-01
2.953476738369184886e+02 9.918818729236951182e-01
2.962481240620310246e+02 9.947191391976142327e-01
2.971485742871435605e+02 9.969493555179895772e-01
2.980490245122560964e+02 9.985718475529544724e-01
2.989494747373686891e+02 9.995861257594922389e-01
2.998499249624812251e+02 9.999918845474209395e-01
3.007503751875938178e+02 9.997890017609891711e-01
3.016508254127062969e+02 9.989775384723270646e-01
3.025512756378189465e+02 9.975577390847123471e-01
3.034517258629314256e+02 9.955300317464910176e-01
3.043521760880440183e+02 9.928950290804264833e-01
3.052526263131565543e+02 9.896535292361871017e-01
3.061530765382691470e+02 9.858065172776966367e-01
3.070535267633816829e+02 9.813551669205980987e-01
3.079539769884942189e+02 9.763008426394956807e-01
3.088544272136068116e+02 9.706451021690180037e-01
3.097548774387193475e+02 9.643896994277908474e-01
3.106553276638319403e+02 9.575365879001774827e-01
3.115557778889444762e+02 9.500879245169000509e-01
3.124562281140570121e+02 9.420460740828761059e-01
3.133566783391695481e+02 9.334136143091271709e-01
3.142571285642821408e+02 9.241933415150553888e-01
3.151575787893946767e+02 9.143882770783293701e-01
3.160580290145072695e+02 9.040016747230003036e-01
3.169584792396197486e+02 8.930370287511029126e-01
3.178589294647323982e+02 8.814980833408917471e-01
3.187593796898448772e+02 8.693888430558018854e-01
3.196598299149574700e+02 8.567135847324635067e-01
3.205602801400700628e+02 8.434768709456853530e-01
3.214607303651825987e+02 8.296835652825915730e-01
3.223611805902951346e+02 8.153388496994591339e-01
3.232616308154076705e+02 8.004482442844784718e-01
3.241620810405202633e+02 7.850176298084871052e-01
3.250625312656327992e+02 7.690532735176577317e-01
3.259629814907453920e+02 7.525618587080284971e-01
3.268634317158579279e+02 7.355505187268962519e-01
3.277638819409705206e+02 7.180268761730848048e-01
3.286643321660829997e+02 6.999990882241494683e-01
3.295647823911955925e+02 6.814758992091596301e-01
3.304652326163081284e+02 6.624667017804819480e-01
3.313656828414207212e+02 6.429816083280194272e-01
3.322661330665332002e+02 6.230315346384603936e-01
3.331665832916457930e+02 6.026282982490869244e-01
3.340670335167583858e+02 5.817847345036972762e-01
3.349674837418709217e+02 5.605148340167511734e-01
3.358679339669835144e+02 5.388339061304647792e-01
3.367683841920959935e+02 5.167587740563317489e-01
3.376688344172086431e+02 4.943080087918005905e-01
3.385692846423211222e+02 4.715022106741411645e-01
3.394697348674337150e+02 4.483643496797954930e-01
3.403701850925463077e+02 4.249201784249957425e-01
3.412706353176588436e+02 4.011987354287983587e-01
3.421710855427713796e+02 3.772329607461348822e-01
3.430715357678839155e+02 3.530604517716476876e-01
3.439719859929965082e+02 3.287243940555973354e-01
3.448724362181090441e+02 3.042747105048852485e-01
3.457728864432216369e+02 2.797694823298996769e-01
3.466733366683341160e+02 2.552767061001842142e-01
3.475737868934467087e+02 2.308764619994803924e-01
3.484742371185593015e+02 2.066635758988594751e-01
3.493746873436718374e+02 1.827508562594002683e-01
3.502751375687843733e+02 1.592729649450578544e-01
3.511755877938969093e+02 1.363909189771623787e-01
3.520760380190095020e+02 1.142970855044862233e-01
3.529764882441220379e+02 9.322027631819528037e-02
3.538769384692345739e+02 7.343011086778759855e-02
3.547773886943472235e+02 5.523915149615545722e-02
3.556778389194597025e+02 3.900046013163572384e-02
3.565782891445722953e+02 2.509744340584560765e-02
3.574787393696848312e+02 1.392279251717565107e-02
3.583791895947974240e+02 5.845006965514441648e-03
