Theta (degrees)	Normalized Energy
0.000000000000000000e+00 9.992569467601767341e-01
3.601800900450224940e-01 9.992570123228057266e-01
7.203601800900449881e-01 9.992572089879107056e-01
1.080540270135067704e+00 9.992575366871540021e-01
1.440720360180089976e+00 9.992579953066629272e-01
1.800900450225112692e+00 9.992585846870682964e-01
2.161080540270135408e+00 9.992593046235550558e-01
2.521260630315157236e+00 9.992601548659270083e-01
2.881440720360179952e+00 9.992611351186897473e-01
3.241620810405202668e+00 9.992622450411445811e-01
3.601800900450225384e+00 9.992634842474982237e-01
3.961980990495247656e+00 9.992648523069901367e-01
4.322161080540270817e+00 9.992663487440283099e-01
4.682341170585292645e+00 9.992679730383443593e-01
5.042521260630314472e+00 9.992697246251601717e-01
5.402701350675338077e+00 9.992716028953750884e-01
5.762881440720359905e+00 9.992736071957578625e-01
6.123061530765382621e+00 9.992757368291603770e-01
6.483241620810405337e+00 9.992779910547431310e-01
6.843421710855427165e+00 9.992803690882153811e-01
7.203601800900450769e+00 9.992828701020906035e-01
7.563781890945473485e+00 9.992854932259522815e-01
7.923961980990495313e+00 9.992882375467389000e-01
8.284142071035518029e+00 9.992911021090409296e-01
8.644322161080541633e+00 9.992940859154085809e-01
9.004502251125561685e+00 9.992971879266808743e-01
9.364682341170585289e+00 9.993004070623168200e-01
9.724862431215608893e+00 9.993037422007574611e-01
1.008504252126062894e+01 9.993071921797844759e-01
1.044522261130565255e+01 9.993107557969023169e-01
1.080540270135067615e+01 9.993144318097304524e-01
1.116558279139569620e+01 9.993182189364107071e-01
1.152576288144071981e+01 9.993221158560261497e-01
1.188594297148574341e+01 9.993261212090350787e-01
1.224612306153076524e+01 9.993302335977171102e-01
1.260630315157578885e+01 9.993344515866307010e-01
1.296648324162081067e+01 9.993387737030874352e-01
1.332666333166583250e+01 9.993431984376365262e-01
1.368684342171085433e+01 9.993477242445620856e-01
1.404702351175587793e+01 9.993523495423922709e-01
1.440720360180090154e+01 9.993570727144237553e-01
1.476738369184592337e+01 9.993618921092549678e-01
1.512756378189094697e+01 9.993668060413353205e-01
1.548774387193596880e+01 9.993718127915225402e-01
1.584792396198099063e+01 9.993769106076522135e-01
1.620810405202601245e+01 9.993820977051263155e-01
1.656828414207103606e+01 9.993873722675004068e-01
1.692846423211605966e+01 9.993927324470945894e-01
1.728864432216108327e+01 9.993981763656091255e-01
1.764882441220610332e+01 9.994037021147508248e-01
1.800900450225112337e+01 9.994093077568754202e-01
1.836918459229614697e+01 9.994149913256351603e-01
1.872936468234117058e+01 9.994207508266402806e-01
1.908954477238619418e+01 9.994265842381296894e-01
1.944972486243121779e+01 9.994324895116530882e-01
1.980990495247624139e+01 9.994384645727603100e-01
2.017008504252125789e+01 9.994445073217048670e-01
2.053026513256628505e+01 9.994506156341531611e-01
2.089044522261130510e+01 9.994567873619047971e-01
2.125062531265632870e+01 9.994630203336233309e-01
2.161080540270135231e+01 9.994693123555731251e-01
2.197098549274637591e+01 9.994756612123691930e-01
2.233116558279139241e+01 9.994820646677308185e-01
2.269134567283641601e+01 9.994885204652457222e-01
2.305152576288143962e+01 9.994950263291447756e-01
2.341170585292646322e+01 9.995015799650827093e-01
2.377188594297148683e+01 9.995081790609234851e-01
2.413206603301650688e+01 9.995148212875385463e-01
2.449224612306153048e+01 9.995215042996067334e-01
2.485242621310655409e+01 9.995282257364295209e-01
2.521260630315157769e+01 9.995349832227407028e-01
2.557278639319660130e+01 9.995417743695349522e-01
2.593296648324162135e+01 9.995485967748932721e-01
2.629314657328664140e+01 9.995554480248205476e-01
2.665332666333166500e+01 9.995623256940842083e-01
2.701350675337668861e+01 9.995692273470635492e-01
2.737368684342170866e+01 9.995761505385961643e-01
2.773386693346673226e+01 9.995830928148382588e-01
2.809404702351175587e+01 9.995900517141228514e-01
2.845422711355677947e+01 9.995970247678257481e-01
2.881440720360180308e+01 9.996040095012342919e-01
2.917458729364682313e+01 9.996110034344172224e-01
2.953476738369184673e+01 9.996180040831054159e-01
2.989494747373687034e+01 9.996250089595674071e-01
3.025512756378189394e+01 9.996320155734899071e-01
3.061530765382691754e+01 9.996390214328642054e-01
3.097548774387193760e+01 9.996460240448742374e-01
3.133566783391696120e+01 9.996530209167784342e-01
3.169584792396198125e+01 9.996600095568054511e-01
3.205602801400700486e+01 9.996669874750407914e-01
3.241620810405202491e+01 9.996739521843208687e-01
3.277638819409705206e+01 9.996809012011244056e-01
3.313656828414207212e+01 9.996878320464629430e-01
3.349674837418709217e+01 9.996947422467776789e-01
3.385692846423211932e+01 9.997016293348258698e-01
3.421710855427713938e+01 9.997084908505738943e-01
3.457728864432216653e+01 9.997153243420895397e-01
3.493746873436718658e+01 9.997221273664264052e-01
3.529764882441220664e+01 9.997288974905126357e-01
3.565782891445722669e+01 9.997356322920363247e-01
3.601800900450224674e+01 9.997423293603242556e-01
3.637818909454726679e+01 9.997489862972257502e-01
3.673836918459229395e+01 9.997556007179831949e-01
3.709854927463732110e+01 9.997621702521087839e-01
3.745872936468234116e+01 9.997686925442518246e-01
3.781890945472736831e+01 9.997751652550632695e-01
3.817908954477238836e+01 9.997815860620543615e-01
3.853926963481740842e+01 9.997879526604541711e-01
3.889944972486243557e+01 9.997942627640573621e-01
3.925962981490745562e+01 9.998005141060682943e-01
3.961980990495248278e+01 9.998067044399412406e-01
3.997998999499749573e+01 9.998128315402113886e-01
4.034017008504251578e+01 9.998188932033184040e-01
4.070035017508754294e+01 9.998248872484287730e-01
4.106053026513257009e+01 9.998308115182421574e-01
4.142071035517759015e+01 9.998366638798006356e-01
4.178089044522261020e+01 9.998424422252789601e-01
4.214107053526763735e+01 9.998481444727754797e-01
4.250125062531265741e+01 9.998537685670886299e-01
4.286143071535768456e+01 9.998593124804883159e-01
4.322161080540270461e+01 9.998647742134744165e-01
4.358179089544772467e+01 9.998701517955290718e-01
4.394197098549275182e+01 9.998754432858569796e-01
4.430215107553776477e+01 9.998806467741151449e-01
4.466233116558278482e+01 9.998857603811354133e-01
4.502251125562781198e+01 9.998907822596309058e-01
4.538269134567283203e+01 9.998957105948937940e-01
4.574287143571785919e+01 9.999005436054831941e-01
4.610305152576287924e+01 9.999052795438996277e-01
4.646323161580789929e+01 9.999099166972472696e-01
4.682341170585292645e+01 9.999144533878808749e-01
4.718359179589794650e+01 9.999188879740487090e-01
4.754377188594297365e+01 9.999232188505133845e-01
4.790395197598799371e+01 9.999274444491621505e-01
4.826413206603301376e+01 9.999315632396054143e-01
4.862431215607804091e+01 9.999355737297622726e-01
4.898449224612306097e+01 9.999394744664277246e-01
4.934467233616808812e+01 9.999432640358281166e-01
4.970485242621310817e+01 9.999469410641634859e-01
5.006503251625812823e+01 9.999505042181312531e-01
5.042521260630315538e+01 9.999539522054384788e-01
5.078539269634817543e+01 9.999572837752982446e-01
5.114557278639320259e+01 9.999604977189050503e-01
5.150575287643822264e+01 9.999635928699051046e-01
5.186593296648324269e+01 9.999665681048403032e-01
5.222611305652826985e+01 9.999694223435822149e-01
5.258629314657328280e+01 9.999721545497468611e-01
5.294647323661830285e+01 9.999747637310927306e-01
5.330665332666333001e+01 9.999772489399058051e-01
5.366683341670835006e+01 9.999796092733636010e-01
5.402701350675337721e+01 9.999818438738814486e-01
5.438719359679839727e+01 9.999839519294475565e-01
5.474737368684341732e+01 9.999859326739325427e-01
5.510755377688844447e+01 9.999877853873864186e-01
5.546773386693346453e+01 9.999895093963205861e-01
5.582791395697849168e+01 9.999911040739623003e-01
5.618809404702351173e+01 9.999925688405013613e-01
5.654827413706853179e+01 9.999939031633123809e-01
5.690845422711355894e+01 9.999951065571629494e-01
5.726863431715857899e+01 9.999961785843989315e-01
5.762881440720360615e+01 9.999971188551164403e-01
5.798899449724862620e+01 9.999979270273101628e-01
5.834917458729364625e+01 9.999986028070101396e-01
5.870935467733865920e+01 9.999991459483897893e-01
5.906953476738369346e+01 9.999995562538673832e-01
5.942971485742870641e+01 9.999998335741772104e-01
5.978989494747374067e+01 9.999999778084327495e-01
6.015007503751875362e+01 9.999999889041601975e-01
6.051025512756378788e+01 9.999998668573240046e-01
6.087043521760880083e+01 9.999996117123240991e-01
6.123061530765383509e+01 9.999992235619808989e-01
6.159079539769884803e+01 9.999987025475014502e-01
6.195097548774387519e+01 9.999980488584193639e-01
6.231115557778889524e+01 9.999972627325247609e-01
6.267133566783392240e+01 9.999963444557735670e-01
6.303151575787893535e+01 9.999952943621722712e-01
6.339169584792396250e+01 9.999941128336520269e-01
6.375187593796898256e+01 9.999928002999209919e-01
6.411205602801400971e+01 9.999913572382925775e-01
6.447223611805902976e+01 9.999897841735082560e-01
6.483241620810404982e+01 9.999880816775293946e-01
6.519259629814906987e+01 9.999862503693165428e-01
6.555277638819410413e+01 9.999842909145914005e-01
6.591295647823912418e+01 9.999822040255800237e-01
6.627313656828414423e+01 9.999799904607327150e-01
6.663331665832916428e+01 9.999776510244369199e-01
6.699349674837418434e+01 9.999751865667042550e-01
6.735367683841920439e+01 9.999725979828413269e-01
6.771385692846423865e+01 9.999698862131055632e-01
6.807403701850924449e+01 9.999670522423428354e-01
6.843421710855427875e+01 9.999640970996076517e-01
6.879439719859929880e+01 9.999610218577650311e-01
6.915457728864433307e+01 9.999578276330820525e-01
6.951475737868933891e+01 9.999545155847948674e-01
6.987493746873437317e+01 9.999510869146627234e-01
7.023511755877939322e+01 9.999475428665104415e-01
7.059529764882441327e+01 9.999438847257479113e-01
7.095547773886943332e+01 9.999401138188754867e-01
7.131565782891445338e+01 9.999362315129814993e-01
7.167583791895947343e+01 9.999322392152143468e-01
7.203601800900449348e+01 9.999281383722448124e-01
7.239619809904952774e+01 9.999239304697147279e-01
7.275637818909453358e+01 9.999196170316670962e-01
7.311655827913956784e+01 9.999151996199698855e-01
7.347673836918458790e+01 9.999106798337147328e-01
7.383691845922962216e+01 9.999060593086116500e-01
7.419709854927464221e+01 9.999013397163666328e-01
7.455727863931966226e+01 9.998965227640443931e-01
7.491745872936468231e+01 9.998916101934244294e-01
7.527763881940970236e+01 9.998866037803367801e-01
7.563781890945473663e+01 9.998815053339911163e-01
7.599799899949974247e+01 9.998763166962927329e-01
7.635817908954477673e+01 9.998710397411475492e-01
7.671835917958979678e+01 9.998656763737502340e-01
7.707853926963481683e+01 9.998602285298714420e-01
7.743871935967983688e+01 9.998546981751268437e-01
7.779889944972487115e+01 9.998490873042378269e-01
7.815907953976987699e+01 9.998433979402817640e-01
7.851925962981491125e+01 9.998376321339350614e-01
7.887943971985993130e+01 9.998317919627035533e-01
7.923961980990496556e+01 9.998258795301460111e-01
7.959979989994997140e+01 9.998198969650865520e-01
7.995997998999499146e+01 9.998138464208251586e-01
8.032016008004002572e+01 9.998077300743277718e-01
8.068034017008503156e+01 9.998015501254233772e-01
8.104052026013006582e+01 9.997953087959847718e-01
8.140070035017508587e+01 9.997890083290998930e-01
8.176088044022012014e+01 9.997826509882490331e-01
8.212106053026514019e+01 9.997762390564604029e-01
8.248124062031016024e+01 9.997697748354696934e-01
8.284142071035518029e+01 9.997632606448719761e-01
8.320160080040021455e+01 9.997566988212654993e-01
8.356178089044522039e+01 9.997500917173940405e-01
8.392196098049024044e+01 9.997434417012834862e-01
8.428214107053527471e+01 9.997367511553727493e-01
8.464232116058028055e+01 9.997300224756414666e-01
8.500250125062531481e+01 9.997232580707356986e-01
8.536268134067033486e+01 9.997164603610906308e-01
8.572286143071536912e+01 9.997096317780442831e-01
8.608304152076037496e+01 9.997027747629597672e-01
8.644322161080540923e+01 9.996958917663337774e-01
8.680340170085042928e+01 9.996889852469116322e-01
8.716358179089544933e+01 9.996820576707942108e-01
8.752376188094046938e+01 9.996751115105518837e-01
8.788394197098550364e+01 9.996681492443290074e-01
8.824412206103050949e+01 9.996611733549543022e-01
8.860430215107552954e+01 9.996541863290449026e-01
8.896448224112056380e+01 9.996471906561200660e-01
8.932466233116556964e+01 9.996401888277027803e-01
8.968484242121060390e+01 9.996331833364342501e-01
9.004502251125562395e+01 9.996261766751808331e-01
9.040520260130065822e+01 9.996191713361467501e-01
9.076538269134566406e+01 9.996121698099899033e-01
9.112556278139069832e+01 9.996051745849325876e-01
9.148574287143571837e+01 9.995981881458834151e-01
9.184592296148073842e+01 9.995912129735560203e-01
9.220610305152575847e+01 9.995842515435938713e-01
9.256628314157076431e+01 9.995773063256974122e-01
9.292646323161579858e+01 9.995703797827522052e-01
9.328664332166081863e+01 9.995634743699662872e-01
9.364682341170585289e+01 9.995565925340074154e-01
9.400700350175085873e+01 9.995497367121476406e-01
9.436718359179589299e+01 9.995429093314086577e-01
9.472736368184091305e+01 9.995361128077168145e-01
9.508754377188594731e+01 9.995293495450634502e-01
9.544772386193095315e+01 9.995226219346624585e-01
9.580790395197598741e+01 9.995159323541267238e-01
9.616808404202102167e+01 9.995092831666421151e-01
9.652826413206602751e+01 9.995026767201468099e-01
9.688844422211106178e+01 9.994961153465247161e-01
9.724862431215608183e+01 9.994896013607988960e-01
9.760880440220111609e+01 9.994831370603354248e-01
9.796898449224612193e+01 9.994767247240542440e-01
9.832916458229115619e+01 9.994703666116470098e-01
9.868934467233617625e+01 9.994640649628031559e-01
9.904952476238119630e+01 9.994578219964417309e-01
9.940970485242621635e+01 9.994516399099612203e-01
9.976988494247125061e+01 9.994455208784815969e-01
1.001300650325162565e+02 9.994394670541100201e-01
1.004902451225612907e+02 9.994334805652071996e-01
1.008504252126063108e+02 9.994275635156690818e-01
1.012106053026513166e+02 9.994217179842098675e-01
1.015707853926963509e+02 9.994159460236615722e-01
1.019309654827413709e+02 9.994102496602805807e-01
1.022911455727864052e+02 9.994046308930658595e-01
1.026513256628314110e+02 9.993990916930853841e-01
1.030115057528764453e+02 9.993936340028122256e-01
1.033716858429214653e+02 9.993882597354757369e-01
1.037318659329664854e+02 9.993829707744191770e-01
1.040920460230115054e+02 9.993777689724691049e-01
1.044522261130565397e+02 9.993726561513166518e-01
1.048124062031015455e+02 9.993676341009118946e-01
1.051725862931465656e+02 9.993627045788627816e-01
1.055327663831915999e+02 9.993578693098571497e-01
1.058929464732366057e+02 9.993531299850827443e-01
1.062531265632816400e+02 9.993484882616704423e-01
1.066133066533266600e+02 9.993439457621455801e-01
1.069734867433716943e+02 9.993395040738868307e-01
1.073336668334167001e+02 9.993351647486060640e-01
1.076938469234617344e+02 9.993309293018329820e-01
1.080540270135067544e+02 9.993267992124175159e-01
1.084142071035517745e+02 9.993227759220411066e-01
1.087743871935967945e+02 9.993188608347441937e-01
1.091345672836418004e+02 9.993150553164625860e-01
1.094947473736868346e+02 9.993113606945807081e-01
1.098549274637318547e+02 9.993077782574972812e-01
1.102151075537768889e+02 9.993043092541991079e-01
1.105752876438218948e+02 9.993009548938588393e-01
1.109354677338669291e+02 9.992977163454326295e-01
1.112956478239119491e+02 9.992945947372841031e-01
1.116558279139569834e+02 9.992915911568130971e-01
1.120160080040019892e+02 9.992887066501027205e-01
1.123761880940470235e+02 9.992859422215760734e-01
1.127363681840920293e+02 9.992832988336721733e-01
1.130965482741370636e+02 9.992807774065322057e-01
1.134567283641820836e+02 9.992783788176989868e-01
1.138169084542271179e+02 9.992761039018338565e-01
1.141770885442721237e+02 9.992739534504435639e-01
1.145372686343171580e+02 9.992719282116290236e-01
1.148974487243621780e+02 9.992700288898340721e-01
1.152576288144072123e+02 9.992682561456247559e-01
1.156178089044522181e+02 9.992666105954723932e-01
1.159779889944972524e+02 9.992650928115544007e-01
1.163381690845422867e+02 9.992637033215687747e-01
1.166983491745872925e+02 9.992624426085651157e-01
1.170585292646323126e+02 9.992613111107864210e-01
1.174187093546773184e+02 9.992603092215295302e-01
1.177788894447223811e+02 9.992594372890168941e-01
1.181390695347673869e+02 9.992586956162835543e-01
1.184992496248124070e+02 9.992580844610821078e-01
1.188594297148574128e+02 9.992576040357941114e-01
1.192196098049024613e+02 9.992572545073696855e-01
1.195797898949474813e+02 9.992570359972662297e-01
1.199399699849925014e+02 9.992569485814123409e-01
1.203001500750375072e+02 9.992569922901831658e-01
1.206603301650825557e+02 9.992571671083909646e-01
1.210205102551275758e+02 9.992574729752896623e-01
1.213806903451725816e+02 9.992579097845936120e-01
1.217408704352176017e+02 9.992584773845131219e-01
1.221010505252626075e+02 9.992591755778027496e-01
1.224612306153076702e+02 9.992600041218248075e-01
1.228214107053526760e+02 9.992609627286296314e-01
1.231815907953976961e+02 9.992620510650432886e-01
1.235417708854427019e+02 9.992632687527823743e-01
1.239019509754877504e+02 9.992646153685699195e-01
1.242621310655327704e+02 9.992660904442753900e-01
1.246223111555777905e+02 9.992676934670656763e-01
1.249824912456227963e+02 9.992694238795690742e-01
1.253426713356678448e+02 9.992712810800582490e-01
1.257028514257128649e+02 9.992732644226427485e-01
1.260630315157578707e+02 9.992753732174788350e-01
1.264232116058028907e+02 9.992776067309918631e-01
1.267833916958479250e+02 9.992799641861174198e-01
1.271435717858929593e+02 9.992824447625483497e-01
1.275037518759379651e+02 9.992850475970045387e-01
1.278639319659829852e+02 9.992877717835119133e-01
1.282241120560280194e+02 9.992906163736972047e-01
1.285842921460730395e+02 9.992935803770954806e-01
1.289444722361180595e+02 9.992966627614737751e-01
1.293046523261630796e+02 9.992998624531655993e-01
1.296648324162080996e+02 9.993031783374215493e-01
1.300250125062531197e+02 9.993066092587754579e-01
1.303851925962981397e+02 9.993101540214159861e-01
1.307453726863431598e+02 9.993138113895823071e-01
1.311055527763882083e+02 9.993175800879677828e-01
1.314657328664331999e+02 9.993214588021356315e-01
1.318259129564782484e+02 9.993254461789510268e-01
1.321860930465232684e+02 9.993295408270241875e-01
1.325462731365682885e+02 9.993337413171696770e-01
1.329064532266133085e+02 9.993380461828719197e-01
1.332666333166583286e+02 9.993424539207744761e-01
1.336268134067033770e+02 9.993469629911687635e-01
1.339869934967483687e+02 9.993515718185083108e-01
1.343471735867933887e+02 9.993562787919224588e-01
1.347073536768384088e+02 9.993610822657577053e-01
1.350675337668834572e+02 9.993659805601138313e-01
1.354277138569284773e+02 9.993709719614101150e-01
1.357878939469734973e+02 9.993760547229446622e-01
1.361480740370184890e+02 9.993812270654838237e-01
1.365082541270635375e+02 9.993864871778498360e-01
1.368684342171085575e+02 9.993918332175257824e-01
1.372286143071535776e+02 9.993972633112716553e-01
1.375887943971985976e+02 9.994027755557497450e-01
1.379489744872436461e+02 9.994083680181620188e-01
1.383091545772886661e+02 9.994140387368997125e-01
1.386693346673336578e+02 9.994197857221994719e-01
1.390295147573786778e+02 9.994256069568162593e-01
1.393896948474236979e+02 9.994315003966992572e-01
1.397498749374687463e+02 9.994374639716840925e-01
1.401100550275137664e+02 9.994434955861898340e-01
1.404702351175587864e+02 9.994495931199326444e-01
1.408304152076037781e+02 9.994557544286387651e-01
1.411905952976488265e+02 9.994619773447768196e-01
1.415507753876938466e+02 9.994682596782924477e-01
1.419109554777388666e+02 9.994745992173565963e-01
1.422711355677838867e+02 9.994809937291181390e-01
1.426313156578289068e+02 9.994874409604660448e-01
1.429914957478739552e+02 9.994939386388063118e-01
1.433516758379189469e+02 9.995004844728322402e-01
