Theta (degrees)	Normalized Energy
0.000000000000000000e+00 9.992569536825466336e-01
3.599999999999999867e-01 9.992570191796315004e-01
7.199999999999999734e-01 9.992572156481506207e-01
1.080000000000000071e+00 9.992575430199016617e-01
1.439999999999999947e+00 9.992580011812413066e-01
1.800000000000000266e+00 9.992585899731172283e-01
2.160000000000000142e+00 9.992593091911228242e-01
2.520000000000000018e+00 9.992601585855629409e-01
2.879999999999999893e+00 9.992611378615330331e-01
3.239999999999999769e+00 9.992622466790139768e-01
3.600000000000000533e+00 9.992634846529822035e-01
3.960000000000000409e+00 9.992648513535352661e-01
4.320000000000000284e+00 9.992663463060283968e-01
4.679999999999999716e+00 9.992679689912297158e-01
5.040000000000000036e+00 9.992697188454868762e-01
5.400000000000000355e+00 9.992715952609075858e-01
5.759999999999999787e+00 9.992735975855603359e-01
6.120000000000000107e+00 9.992757251236805693e-01
6.479999999999999538e+00 9.992779771358982766e-01
6.840000000000000746e+00 9.992803528394776924e-01
7.200000000000001066e+00 9.992828514085712044e-01
7.560000000000000497e+00 9.992854719744818093e-01
7.920000000000000817e+00 9.992882136259535475e-01
8.280000000000001137e+00 9.992910754094604941e-01
8.640000000000000568e+00 9.992940563295218404e-01
9.000000000000000000e+00 9.992971553490170855e-01
9.359999999999999432e+00 9.993003713895342033e-01
9.720000000000002416e+00 9.993037033317131446e-01
1.008000000000000007e+01 9.993071500156142095e-01
1.044000000000000128e+01 9.993107102410939691e-01
1.080000000000000071e+01 9.993143827682001712e-01
1.116000000000000014e+01 9.993181663175737528e-01
1.151999999999999957e+01 9.993220595708707243e-01
1.188000000000000078e+01 9.993260611711909380e-01
1.224000000000000021e+01 9.993301697235255077e-01
1.260000000000000142e+01 9.993343837952116671e-01
1.295999999999999908e+01 9.993387019164075014e-01
1.331999999999999851e+01 9.993431225805714524e-01
1.368000000000000149e+01 9.993476442449618080e-01
1.404000000000000270e+01 9.993522653311411874e-01
1.440000000000000213e+01 9.993569842255027869e-01
1.475999999999999979e+01 9.993617992798017324e-01
1.512000000000000099e+01 9.993667088116962027e-01
1.548000000000000043e+01 9.993717111053136426e-01
1.584000000000000163e+01 9.993768044118106486e-01
1.620000000000000284e+01 9.993819869499622754e-01
1.656000000000000227e+01 9.993872569067484557e-01
1.691999999999999815e+01 9.993926124379626241e-01
1.728000000000000114e+01 9.993980516688245608e-01
1.764000000000000057e+01 9.994035726946052245e-01
1.800000000000000000e+01 9.994091735812695720e-01
1.835999999999999943e+01 9.994148523661181560e-01
1.871999999999999886e+01 9.994206070584505941e-01
1.908000000000000185e+01 9.994264356402314808e-01
1.944000000000000483e+01 9.994323360667726197e-01
1.980000000000000426e+01 9.994383062674200291e-01
2.016000000000000014e+01 9.994443441462529387e-01
2.052000000000000313e+01 9.994504475827944434e-01
2.088000000000000256e+01 9.994566144327285961e-01
2.124000000000000554e+01 9.994628425286272710e-01
2.160000000000000142e+01 9.994691296806882397e-01
2.196000000000000085e+01 9.994754736774793535e-01
2.232000000000000028e+01 9.994818722866929406e-01
2.267999999999999972e+01 9.994883232559051978e-01
2.303999999999999915e+01 9.994948243133530141e-01
2.340000000000000213e+01 9.995013731687062419e-01
2.376000000000000156e+01 9.995079675138555109e-01
2.412000000000000099e+01 9.995146050237074808e-01
2.448000000000000043e+01 9.995212833569830924e-01
2.484000000000000341e+01 9.995280001570253647e-01
2.520000000000000284e+01 9.995347530526160762e-01
2.556000000000000227e+01 9.995415396587925549e-01
2.591999999999999815e+01 9.995483575776786811e-01
2.627999999999999758e+01 9.995552043993140012e-01
2.663999999999999702e+01 9.995620777024947223e-01
2.700000000000000355e+01 9.995689750556164821e-01
2.736000000000000298e+01 9.995758940175232254e-01
2.772000000000000242e+01 9.995828321383610771e-01
2.808000000000000540e+01 9.995897869604376540e-01
2.844000000000000483e+01 9.995967560190813783e-01
2.880000000000000426e+01 9.996037368435121140e-01
2.916000000000000014e+01 9.996107269577084731e-01
2.951999999999999957e+01 9.996177238812822274e-01
2.987999999999999901e+01 9.996247251303539416e-01
3.024000000000000199e+01 9.996317282184336017e-01
3.059999999999999787e+01 9.996387306573036868e-01
3.096000000000000085e+01 9.996457299578972444e-01
3.132000000000000739e+01 9.996527236311917308e-01
3.168000000000000327e+01 9.996597091890893072e-01
3.204000000000000625e+01 9.996666841453099028e-01
3.240000000000000568e+01 9.996736460162779503e-01
3.276000000000000512e+01 9.996805923220135615e-01
3.312000000000000455e+01 9.996875205870222603e-01
3.348000000000000398e+01 9.996944283411823839e-01
3.383999999999999631e+01 9.997013131206416992e-01
3.420000000000000284e+01 9.997081724686981419e-01
3.456000000000000227e+01 9.997150039366921037e-01
3.492000000000000171e+01 9.997218050848925008e-01
3.528000000000000114e+01 9.997285734833774029e-01
3.564000000000000767e+01 9.997353067129234327e-01
3.600000000000000000e+01 9.997420023658791788e-01
3.636000000000000654e+01 9.997486580470437145e-01
3.671999999999999886e+01 9.997552713745445629e-01
3.707999999999999829e+01 9.997618399807031153e-01
3.743999999999999773e+01 9.997683615129033807e-01
3.780000000000000426e+01 9.997748336344566278e-01
3.816000000000000369e+01 9.997812540254542579e-01
3.852000000000000313e+01 9.997876203836260078e-01
3.888000000000000966e+01 9.997939304251863835e-01
3.924000000000000199e+01 9.998001818856749878e-01
3.960000000000000853e+01 9.998063725207954056e-01
3.996000000000000085e+01 9.998125001072450946e-01
4.032000000000000028e+01 9.998185624435382834e-01
4.067999999999999972e+01 9.998245573508234285e-01
4.104000000000000625e+01 9.998304826736930107e-01
4.139999999999999858e+01 9.998363362809845611e-01
4.176000000000000512e+01 9.998421160665753593e-01
4.211999999999999744e+01 9.998478199501692476e-01
4.248000000000001108e+01 9.998534458780715672e-01
4.283999999999999631e+01 9.998589918239585428e-01
4.320000000000000284e+01 9.998644557896378959e-01
4.356000000000000227e+01 9.998698358057952484e-01
4.392000000000000171e+01 9.998751299327366393e-01
4.428000000000000114e+01 9.998803362611151657e-01
4.464000000000000057e+01 9.998854529126518509e-01
4.500000000000000000e+01 9.998904780408446324e-01
4.535999999999999943e+01 9.998954098316599204e-01
4.571999999999999886e+01 9.999002465042243770e-01
4.607999999999999829e+01 9.999049863114946035e-01
4.644000000000000483e+01 9.999096275409196100e-01
4.680000000000000426e+01 9.999141685150905179e-01
4.716000000000000369e+01 9.999186075923754968e-01
4.752000000000000313e+01 9.999229431675480395e-01
4.788000000000000256e+01 9.999271736723871484e-01
4.824000000000000199e+01 9.999312975762875144e-01
4.860000000000000142e+01 9.999353133868318366e-01
4.896000000000000085e+01 9.999392196503668062e-01
4.932000000000000739e+01 9.999430149525534439e-01
4.968000000000000682e+01 9.999466979189101101e-01
5.004000000000000625e+01 9.999502672153361971e-01
5.040000000000000568e+01 9.999537215486254960e-01
5.076000000000000512e+01 9.999570596669575817e-01
5.112000000000000455e+01 9.999602803603820922e-01
5.148000000000000398e+01 9.999633824612781385e-01
5.183999999999999631e+01 9.999663648448060549e-01
5.220000000000000284e+01 9.999692264293392752e-01
5.255999999999999517e+01 9.999719661768765588e-01
5.292000000000000881e+01 9.999745830934461122e-01
5.327999999999999403e+01 9.999770762294847293e-01
5.364000000000000767e+01 9.999794446802043879e-01
5.400000000000000711e+01 9.999816875859426357e-01
5.436000000000000654e+01 9.999838041324899951e-01
5.472000000000000597e+01 9.999857935514103735e-01
5.507999999999999829e+01 9.999876551203290553e-01
5.544000000000000483e+01 9.999893881632199166e-01
5.579999999999999716e+01 9.999909920506625527e-01
5.616000000000001080e+01 9.999924662000836406e-01
5.651999999999999602e+01 9.999938100759867554e-01
5.688000000000000966e+01 9.999950231901567621e-01
5.724000000000000199e+01 9.999961051018479985e-01
5.760000000000000853e+01 9.999970554179555826e-01
5.796000000000000796e+01 9.999978737931703998e-01
5.832000000000000028e+01 9.999985599301065564e-01
5.867999999999999972e+01 9.999991135794231711e-01
5.903999999999999915e+01 9.999995345399167457e-01
5.940000000000001279e+01 9.999998226585983252e-01
5.975999999999999801e+01 9.999999778307580023e-01
6.012000000000000455e+01 1.000000000000000000e+00
6.048000000000000398e+01 9.999998891582668747e-01
6.084000000000001052e+01 9.999996453458427359e-01
6.119999999999999574e+01 9.999992686513383688e-01
6.156000000000000227e+01 9.999987592116530433e-01
6.192000000000000171e+01 9.999981172119273287e-01
6.228000000000000114e+01 9.999973428854659341e-01
6.264000000000001478e+01 9.999964365136521094e-01
6.300000000000000000e+01 9.999953984258342921e-01
6.336000000000000654e+01 9.999942289992019839e-01
6.372000000000000597e+01 9.999929286586375365e-01
6.408000000000001251e+01 9.999914978765538365e-01
6.443999999999999773e+01 9.999899371727081210e-01
6.480000000000001137e+01 9.999882471140061346e-01
6.516000000000001080e+01 9.999864283142789745e-01
6.552000000000001023e+01 9.999844814340458354e-01
6.587999999999999545e+01 9.999824071802602132e-01
6.624000000000000909e+01 9.999802063060391211e-01
6.660000000000000853e+01 9.999778796103657719e-01
6.696000000000000796e+01 9.999754279377900401e-01
6.731999999999999318e+01 9.999728521780943957e-01
6.767999999999999261e+01 9.999701532659570624e-01
6.804000000000000625e+01 9.999673321805891968e-01
6.840000000000000568e+01 9.999643899453577456e-01
6.875999999999999091e+01 9.999613276273934259e-01
6.912000000000000455e+01 9.999581463371802759e-01
6.948000000000000398e+01 9.999548472281254430e-01
6.984000000000000341e+01 9.999514314961225336e-01
7.020000000000000284e+01 9.999479003790860965e-01
7.056000000000000227e+01 9.999442551564815540e-01
7.092000000000000171e+01 9.999404971488349281e-01
7.128000000000001535e+01 9.999366277172254680e-01
7.164000000000001478e+01 9.999326482627632906e-01
7.200000000000000000e+01 9.999285602260603589e-01
7.235999999999999943e+01 9.999243650866740385e-01
7.272000000000001307e+01 9.999200643625451024e-01
7.308000000000001251e+01 9.999156596094207483e-01
7.343999999999999773e+01 9.999111524202599632e-01
7.379999999999999716e+01 9.999065444246274525e-01
7.415999999999999659e+01 9.999018372880781325e-01
7.452000000000001023e+01 9.998970327115183077e-01
7.487999999999999545e+01 9.998921324305689584e-01
7.524000000000000909e+01 9.998871382148996068e-01
7.560000000000000853e+01 9.998820518675667346e-01
7.596000000000000796e+01 9.998768752243261115e-01
7.632000000000000739e+01 9.998716101529413480e-01
7.668000000000000682e+01 9.998662585524851210e-01
7.704000000000000625e+01 9.998608223526149752e-01
7.740000000000000568e+01 9.998553035128531219e-01
7.776000000000001933e+01 9.998497040218498055e-01
7.812000000000000455e+01 9.998440258966337923e-01
7.848000000000000398e+01 9.998382711818623036e-01
7.884000000000000341e+01 9.998324419490496329e-01
7.920000000000001705e+01 9.998265402957970949e-01
7.956000000000000227e+01 9.998205683450082093e-01
7.992000000000000171e+01 9.998145282440975556e-01
8.028000000000000114e+01 9.998084221641918568e-01
8.064000000000000057e+01 9.998022522993218475e-01
8.100000000000000000e+01 9.997960208656090364e-01
8.135999999999999943e+01 9.997897301004450288e-01
8.172000000000001307e+01 9.997833822616593036e-01
8.208000000000001251e+01 9.997769796266915421e-01
8.243999999999999773e+01 9.997705244917433065e-01
8.279999999999999716e+01 9.997640191709377122e-01
8.315999999999999659e+01 9.997574659954652221e-01
8.352000000000001023e+01 9.997508673127294410e-01
8.387999999999999545e+01 9.997442254854829180e-01
8.423999999999999488e+01 9.997375428909651696e-01
8.459999999999999432e+01 9.997308219200288226e-01
8.496000000000002217e+01 9.997240649762740849e-01
8.532000000000002160e+01 9.997172744751645634e-01
8.567999999999999261e+01 9.997104528431538517e-01
8.604000000000000625e+01 9.997036025168002382e-01
8.640000000000000568e+01 9.996967259418874097e-01
8.676000000000001933e+01 9.996898255725343851e-01
8.712000000000000455e+01 9.996829038703084480e-01
8.748000000000000398e+01 9.996759633033410752e-01
8.784000000000000341e+01 9.996690063454337638e-01
8.820000000000001705e+01 9.996620354751699633e-01
8.856000000000000227e+01 9.996550531750263424e-01
8.892000000000000171e+01 9.996480619304808357e-01
8.928000000000000114e+01 9.996410642291223558e-01
8.964000000000000057e+01 9.996340625597657237e-01
9.000000000000000000e+01 9.996270594115604924e-01
9.035999999999999943e+01 9.996200572731063216e-01
9.071999999999999886e+01 9.996130586315662425e-01
9.107999999999999829e+01 9.996060659717884711e-01
9.143999999999999773e+01 9.995990817754220048e-01
9.179999999999999716e+01 9.995921085200409895e-01
9.215999999999999659e+01 9.995851486782700857e-01
9.252000000000001023e+01 9.995782047169132767e-01
9.288000000000000966e+01 9.995712790960851191e-01
9.324000000000000909e+01 9.995643742683482103e-01
9.360000000000000853e+01 9.995574926778533209e-01
9.396000000000000796e+01 9.995506367594823027e-01
9.432000000000000739e+01 9.995438089380015434e-01
9.468000000000000682e+01 9.995370116272102035e-01
9.504000000000000625e+01 9.995302472291063278e-01
9.540000000000000568e+01 9.995235181330506258e-01
9.576000000000000512e+01 9.995168267149332486e-01
9.612000000000000455e+01 9.995101753363551111e-01
9.648000000000000398e+01 9.995035663438114337e-01
9.684000000000000341e+01 9.994970020678815015e-01
9.720000000000000284e+01 9.994904848224226424e-01
9.756000000000000227e+01 9.994840169037811917e-01
9.792000000000000171e+01 9.994776005899944638e-01
9.828000000000000114e+01 9.994712381400193690e-01
9.864000000000001478e+01 9.994649317929538146e-01
9.900000000000001421e+01 9.994586837672726487e-01
9.936000000000001364e+01 9.994524962600710438e-01
9.972000000000001307e+01 9.994463714463187598e-01
1.000800000000000125e+02 9.994403114781152953e-01
1.004400000000000119e+02 9.994343184839660221e-01
1.008000000000000114e+02 9.994283945680541015e-01
1.011600000000000108e+02 9.994225418095358249e-01
1.015200000000000102e+02 9.994167622618307378e-01
1.018800000000000097e+02 9.994110579519346338e-01
1.022400000000000091e+02 9.994054308797357677e-01
1.026000000000000085e+02 9.993998830173377312e-01
1.029600000000000080e+02 9.993944163084064192e-01
1.033200000000000074e+02 9.993890326675086699e-01
1.036799999999999926e+02 9.993837339794784391e-01
1.040400000000000063e+02 9.993785220987824180e-01
1.044000000000000057e+02 9.993733988489040820e-01
1.047600000000000051e+02 9.993683660217338449e-01
1.051199999999999903e+02 9.993634253769723141e-01
1.054800000000000182e+02 9.993585786415472016e-01
1.058400000000000176e+02 9.993538275090396716e-01
1.062000000000000171e+02 9.993491736391215685e-01
1.065599999999999881e+02 9.993446186570055234e-01
1.069200000000000017e+02 9.993401641529104928e-01
1.072800000000000153e+02 9.993358116815336256e-01
1.076400000000000148e+02 9.993315627615395602e-01
1.080000000000000142e+02 9.993274188750561615e-01
1.083599999999999994e+02 9.993233814671953485e-01
1.087200000000000131e+02 9.993194519455658176e-01
1.090800000000000125e+02 9.993156316798216254e-01
1.094400000000000119e+02 9.993119220012084414e-01
1.097999999999999972e+02 9.993083242021263413e-01
1.101599999999999966e+02 9.993048395357092550e-01
1.105200000000000102e+02 9.993014692154142953e-01
1.108800000000000097e+02 9.992982144146250745e-01
1.112399999999999949e+02 9.992950762662686781e-01
1.115999999999999943e+02 9.992920558624481808e-01
1.119600000000000222e+02 9.992891542540841554e-01
1.123200000000000216e+02 9.992863724505750556e-01
1.126799999999999926e+02 9.992837114194659254e-01
1.130399999999999920e+02 9.992811720861384250e-01
1.134000000000000057e+02 9.992787553335051864e-01
1.137600000000000193e+02 9.992764620017274835e-01
1.141200000000000045e+02 9.992742928879431163e-01
1.144800000000000040e+02 9.992722487460027336e-01
1.148400000000000034e+02 9.992703302862315784e-01
1.152000000000000171e+02 9.992685381751976736e-01
1.155600000000000165e+02 9.992668730354945517e-01
1.159200000000000159e+02 9.992653354455421910e-01
1.162800000000000153e+02 9.992639259393991669e-01
1.166400000000000006e+02 9.992626450065901222e-01
1.170000000000000000e+02 9.992614930919470062e-01
1.173599999999999994e+02 9.992604705954692967e-01
1.177199999999999989e+02 9.992595778721881095e-01
1.180799999999999983e+02 9.992588152320592831e-01
1.184400000000000261e+02 9.992581829398571314e-01
1.188000000000000256e+02 9.992576812150922860e-01
1.191600000000000250e+02 9.992573102319413092e-01
1.195199999999999960e+02 9.992570701191889615e-01
1.198800000000000097e+02 9.992569609601874570e-01
1.202400000000000091e+02 9.992569827928301507e-01
1.206000000000000085e+02 9.992571356095374391e-01
1.209600000000000080e+02 9.992574193572614227e-01
1.213200000000000074e+02 9.992578339375020047e-01
1.216800000000000210e+02 9.992583792063393089e-01
1.220400000000000205e+02 9.992590549744776451e-01
1.223999999999999915e+02 9.992598610073097909e-01
1.227600000000000051e+02 9.992607970249905991e-01
1.231200000000000045e+02 9.992618627025275924e-01
1.234800000000000040e+02 9.992630576698866562e-01
1.238400000000000034e+02 9.992643815121098338e-01
1.242000000000000028e+02 9.992658337694507731e-01
1.245600000000000023e+02 9.992674139375208320e-01
1.249200000000000301e+02 9.992691214674547240e-01
1.252800000000000296e+02 9.992709557660879316e-01
1.256399999999999864e+02 9.992729161961434459e-01
1.260000000000000000e+02 9.992750020764445962e-01
1.263600000000000136e+02 9.992772126821310996e-01
1.267200000000000131e+02 9.992795472448940952e-01
1.270800000000000125e+02 9.992820049532274984e-01
1.274400000000000119e+02 9.992845849526866830e-01
1.278000000000000114e+02 9.992872863461714772e-01
1.281600000000000250e+02 9.992901081942110464e-01
1.285199999999999818e+02 9.992930495152733128e-01
1.288799999999999955e+02 9.992961092860818129e-01
1.292400000000000091e+02 9.992992864419498744e-01
1.296000000000000227e+02 9.993025798771280055e-01
1.299600000000000080e+02 9.993059884451603869e-01
1.303200000000000216e+02 9.993095109592621261e-01
1.306800000000000068e+02 9.993131461927059478e-01
1.310400000000000205e+02 9.993168928792229844e-01
1.314000000000000341e+02 9.993207497134174444e-01
1.317599999999999909e+02 9.993247153511914949e-01
1.321200000000000045e+02 9.993287884101892393e-01
1.324800000000000182e+02 9.993329674702485788e-01
1.328400000000000034e+02 9.993372510738657288e-01
1.332000000000000171e+02 9.993416377266788331e-01
1.335600000000000023e+02 9.993461258979564610e-01
1.339200000000000159e+02 9.993507140211026485e-01
1.342800000000000011e+02 9.993554004941770375e-01
1.346399999999999864e+02 9.993601836804173466e-01
1.350000000000000000e+02 9.993650619087884879e-01
1.353599999999999852e+02 9.993700334745307945e-01
1.357199999999999989e+02 9.993750966397280111e-01
1.360800000000000125e+02 9.993802496338836105e-01
1.364400000000000261e+02 9.993854906545094341e-01
1.368000000000000114e+02 9.993908178677266552e-01
1.371600000000000250e+02 9.993962294088764020e-01
1.375199999999999818e+02 9.994017233831431479e-01
1.378799999999999955e+02 9.994072978661886486e-01
1.382400000000000091e+02 9.994129509047955384e-01
1.385999999999999943e+02 9.994186805175233612e-01
1.389600000000000080e+02 9.994244846953735939e-01
1.393200000000000216e+02 9.994303614024663274e-01
1.396800000000000068e+02 9.994363085767252741e-01
1.400400000000000205e+02 9.994423241305729899e-01
1.404000000000000057e+02 9.994484059516397512e-01
1.407599999999999909e+02 9.994545519034755410e-01
1.411200000000000045e+02 9.994607598262746917e-01
1.414799999999999898e+02 9.994670275376101864e-01
1.418400000000000034e+02 9.994733528331771755e-01
1.422000000000000171e+02 9.994797334875408223e-01
1.425600000000000307e+02 9.994861672548990272e-01
1.429200000000000159e+02 9.994926518698494800e-01
1.432800000000000296e+02 9.994991850481625972e-01
