Theta (degrees)	Normalized Energy
0.000000000000000000e+00 3.637954931861359193e-16
2.882882882882882747e+00 2.595974212465034740e-04
5.765765765765765494e+00 1.037542715736216844e-03
8.648648648648647352e+00 2.331286394929729666e-03
1.153153153153153099e+01 4.136549404002096315e-03
1.441441441441441285e+01 6.447273429648842438e-03
1.729729729729729470e+01 9.255540633364109024e-03
2.018018018018017656e+01 1.255144937030471149e-02
2.306306306306306197e+01 1.632292371133283251e-02
2.594594594594594739e+01 2.055541996281608219e-02
2.882882882882882569e+01 2.523146785435358141e-02
3.171171171171171110e+01 3.032993769305254023e-02
3.459459459459458941e+01 3.582483699552675704e-02
3.747747747747747127e+01 4.168326641866777760e-02
4.036036036036035313e+01 4.786180443801403561e-02
4.324324324324324209e+01 5.429980441244032507e-02
4.612612612612612395e+01 6.090629146881412076e-02
4.900900900900899870e+01 6.753291767637599474e-02
5.189189189189189477e+01 7.391585977564439636e-02
5.477477477477476953e+01 7.955452480414951233e-02
5.765765765765765138e+01 8.352819212449799635e-02
6.054054054054053324e+01 8.460372871068311262e-02
6.342342342342342221e+01 8.231206160150197904e-02
6.630630630630629696e+01 7.757459658354577681e-02
6.918918918918917882e+01 7.157542043321815650e-02
7.207207207207206068e+01 6.505879077815564238e-02
7.495495495495494254e+01 5.841681413960946034e-02
7.783783783783783861e+01 5.186004200341678971e-02
8.072072072072070625e+01 4.551070430508965398e-02
8.360360360360358811e+01 3.944622328725224530e-02
8.648648648648648418e+01 3.371969897598947608e-02
8.936936936936936604e+01 2.837003435382812883e-02
9.225225225225224790e+01 2.342722156117132970e-02
9.513513513513512976e+01 1.891524615005861498e-02
9.801801801801799741e+01 1.485375551442386609e-02
1.009009009009008935e+02 1.125905441578339307e-02
1.037837837837837895e+02 8.144718012408607571e-03
1.066666666666666572e+02 5.521979046441284622e-03
1.095495495495495391e+02 3.399977085508723573e-03
1.124324324324324351e+02 1.785920820146532370e-03
1.153153153153153028e+02 6.851938031597619612e-04
1.181981981981981988e+02 1.014220235006490914e-04
1.210810810810810665e+02 3.651440616285394968e-05
1.239639639639639483e+02 4.906826110428667929e-04
1.268468468468468444e+02 1.462443165679372251e-03
1.297297297297297121e+02 2.948602255503334022e-03
1.326126126126125939e+02 4.944220849537785643e-03
1.354954954954954758e+02 7.442554717858829334e-03
1.383783783783783576e+02 1.043495961317280132e-02
1.412612612612612679e+02 1.391074538490520186e-02
1.441441441441441214e+02 1.785695224891469327e-02
1.470270270270270032e+02 2.225800450110375708e-02
1.499099099099098851e+02 2.709516518330325544e-02
1.527927927927927669e+02 3.234565659053566244e-02
1.556756756756756772e+02 3.798119872804552738e-02
1.585585585585585306e+02 4.396549076129456501e-02
1.614414414414414125e+02 5.024968057763162799e-02
1.643243243243243228e+02 5.676380160083251830e-02
1.672072072072071762e+02 6.339968356521810677e-02
1.700900900900900865e+02 6.997503039005768810e-02
1.729729729729729684e+02 7.615602526730766431e-02
1.758558558558558502e+02 8.130521945197073663e-02
1.787387387387387321e+02 8.432901779689881694e-02
1.816216216216215855e+02 8.411212651074349844e-02
1.845045045045044958e+02 8.075110435783554308e-02
1.873873873873873777e+02 7.542269400610968066e-02
1.902702702702702595e+02 6.916571082483564947e-02
1.931531531531531698e+02 6.256874737575511547e-02
1.960360360360359948e+02 5.594014778771982943e-02
1.989189189189189051e+02 4.944987442152223162e-02
2.018018018018017870e+02 4.319989497418665059e-02
2.046846846846846688e+02 3.725684257410957073e-02
2.075675675675675791e+02 3.166764374028520346e-02
2.104504504504504609e+02 2.646740354982462726e-02
2.133333333333333144e+02 2.168360464218911654e-02
2.162162162162161962e+02 1.733845495136947593e-02
2.190990990990990781e+02 1.345025680588246737e-02
2.219819819819819884e+02 1.003423416487842466e-02
2.248648648648648702e+02 7.103047252364086579e-03
2.277477477477477237e+02 4.667120179099389261e-03
2.306306306306306055e+02 2.734852963034128427e-03
2.335135135135134874e+02 1.312759836841953303e-03
2.363963963963963977e+02 4.055589868807881176e-04
2.392792792792792795e+02 1.622896904982230702e-05
2.421621621621621330e+02 1.460408992204821784e-04
2.450450450450450433e+02 7.945714246784051733e-04
2.479279279279278967e+02 1.959698453672353759e-03
2.508108108108108070e+02 3.637578994795305411e-03
2.536936936936936888e+02 5.822605701105584841e-03
2.565765765765765991e+02 8.507335250734974000e-03
2.594594594594594241e+02 1.168237673306614897e-02
2.623423423423423060e+02 1.533622046327157672e-02
2.652252252252251878e+02 1.945497484385089182e-02
2.681081081081081265e+02 2.402195676903212326e-02
2.709909909909909516e+02 2.901704127654454110e-02
2.738738738738738903e+02 3.441560160974257987e-02
2.767567567567567153e+02 4.018672503526544981e-02
2.796396396396395971e+02 4.629009087775155101e-02
2.825225225225225358e+02 5.267025357842165800e-02
2.854054054054054177e+02 5.924561843689494373e-02
2.882882882882882427e+02 6.588598565485943859e-02
2.911711711711711814e+02 7.236463717528884843e-02
2.940540540540540064e+02 7.825628019529395907e-02
2.969369369369369451e+02 8.275937151663201319e-02
2.998198198198197701e+02 8.465916355386042536e-02
3.027027027027027088e+02 8.316563845099153585e-02
3.055855855855855339e+02 7.891696391893349150e-02
3.084684684684684157e+02 7.314516386349821653e-02
3.113513513513513544e+02 6.671089191119339290e-02
3.142342342342342363e+02 6.007555337481600838e-02
3.171171171171170613e+02 5.348357358006168571e-02
3.200000000000000000e+02 4.707383416575850604e-02
3.228828828828828250e+02 4.093243663527224019e-02
3.257657657657657637e+02 3.511733719351964322e-02
3.286486486486486456e+02 2.967036035392529511e-02
3.315315315315314706e+02 2.462338673393664121e-02
3.344144144144143524e+02 2.000171143849831246e-02
3.372972972972972912e+02 1.582595317991042014e-02
3.401801801801801730e+02 1.211318336454188238e-02
3.430630630630630549e+02 8.877616313638392667e-03
3.459459459459459367e+02 6.131042699185687388e-03
3.488288288288288186e+02 3.883107409545274655e-03
3.517117117117117004e+02 2.141490117603581621e-03
3.545945945945945255e+02 9.120230687740300693e-04
3.574774774774774642e+02 1.987669273578719588e-04
3.603603603603602892e+02 4.057293874249523737e-06
3.632432432432431710e+02 3.285292797704843790e-04
3.661261261261261097e+02 1.171123925555427915e-03
3.690090090090089916e+02 2.529077437268714961e-03
3.718918918918918735e+02 4.397891603000728469e-03
3.747747747747747553e+02 6.771280804098005375e-03
3.776576576576576372e+02 9.641087122029937811e-03
3.805405405405405190e+02 1.299714922469165715e-02
3.834234234234234009e+02 1.682710141676902957e-02
3.863063063063063396e+02 2.111606359615116751e-02
3.891891891891891078e+02 2.584615541625141441e-02
3.920720720720719896e+02 3.099571784689612169e-02
3.949549549549549283e+02 3.653802995976522527e-02
3.978378378378378102e+02 4.243911898876042560e-02
4.007207207207206920e+02 4.865386554277898595e-02
4.036036036036035739e+02 5.511873660261064345e-02
4.064864864864864558e+02 6.173748171312556238e-02
4.093693693693693376e+02 6.835142214257816651e-02
4.122522522522522195e+02 7.467548526569267597e-02
4.151351351351351582e+02 8.016670226977039293e-02
4.180180180180179264e+02 8.384447850570433958e-02
4.209009009009009219e+02 8.449335570407393026e-02
4.237837837837837469e+02 8.182643461057513556e-02
4.266666666666666288e+02 7.687389650064642421e-02
4.295495495495495106e+02 7.077856303889418221e-02
4.324324324324323925e+02 6.422985454600899091e-02
4.353153153153152743e+02 5.758944644445981170e-02
4.381981981981981562e+02 5.105312549531176164e-02
4.410810810810810381e+02 4.473579820346300362e-02
4.439639639639639768e+02 3.871101955914499348e-02
4.468468468468467449e+02 3.302969582227630735e-02
4.497297297297297405e+02 2.772939199364317028e-02
4.526126126126125655e+02 2.283922363995377278e-02
4.554954954954954474e+02 1.838256050349001622e-02
4.583783783783783292e+02 1.437858761401856859e-02
4.612612612612612111e+02 1.084324077668555319e-02
4.641441441441440929e+02 7.789784652672522049e-03
4.670270270270269748e+02 5.229178873042121360e-03
4.699099099099097998e+02 3.170314160757588262e-03
4.727927927927927954e+02 1.620166204377608728e-03
4.756756756756756772e+02 5.838958046150699577e-04
4.785585585585585591e+02 6.491257283121971890e-05
4.814414414414413841e+02 6.491257283143799591e-05
4.843243243243242659e+02 5.838958046152154576e-04
4.872072072072071478e+02 1.620166204377317728e-03
4.900900900900900865e+02 3.170314160757588262e-03
4.929729729729730252e+02 5.229178873042484785e-03
4.958558558558557934e+02 7.789784652672594907e-03
4.987387387387387321e+02 1.084324077668577177e-02
5.016216216216216139e+02 1.437858761401835175e-02
5.045045045045044390e+02 1.838256050349030765e-02
5.073873873873873777e+02 2.283922363995369992e-02
5.102702702702702595e+02 2.772939199364295518e-02
5.131531531531531982e+02 3.302969582227601592e-02
5.160360360360359664e+02 3.871101955914506287e-02
5.189189189189188482e+02 4.473579820346293423e-02
5.218018018018017301e+02 5.105312549531197674e-02
5.246846846846846120e+02 5.758944644445988109e-02
5.275675675675676075e+02 6.422985454600892152e-02
5.304504504504503757e+02 7.077856303889418221e-02
5.333333333333332575e+02 7.687389650064628543e-02
5.362162162162162531e+02 8.182643461057498291e-02
5.390990990990990213e+02 8.449335570407422169e-02
5.419819819819819031e+02 8.384447850570492244e-02
5.448648648648648987e+02 8.016670226977061497e-02
5.477477477477477805e+02 7.467548526569253720e-02
5.506306306306306624e+02 6.835142214257801385e-02
5.535135135135134306e+02 6.173748171312599953e-02
5.563963963963963124e+02 5.511873660261108060e-02
5.592792792792791943e+02 4.865386554277971454e-02
5.621621621621620761e+02 4.243911898876078642e-02
5.650450450450450717e+02 3.653802995976486445e-02
5.679279279279279535e+02 3.099571784689612169e-02
5.708108108108108354e+02 2.584615541625148727e-02
5.736936936936936036e+02 2.111606359615116751e-02
5.765765765765764854e+02 1.682710141676895671e-02
5.794594594594593673e+02 1.299714922469151143e-02
5.823423423423423628e+02 9.641087122029573520e-03
5.852252252252252447e+02 6.771280804098151092e-03
5.881081081081080129e+02 4.397891603000728469e-03
5.909909909909910084e+02 2.529077437267987678e-03
5.938738738738738903e+02 1.171123925554991415e-03
5.967567567567566584e+02 3.285292797705571832e-04
5.996396396396395403e+02 4.057293873667450319e-06
6.025225225225225358e+02 1.987669273574354048e-04
6.054054054054054177e+02 9.120230687730842114e-04
6.082882882882881859e+02 2.141490117603144904e-03
6.111711711711710677e+02 3.883107409545056513e-03
6.140540540540539496e+02 6.131042699185833104e-03
6.169369369369368314e+02 8.877616313637518367e-03
6.198198198198198270e+02 1.211318336454180952e-02
6.227027027027027088e+02 1.582595317991027442e-02
6.255855855855855907e+02 2.000171143849758387e-02
6.284684684684684726e+02 2.462338673393576691e-02
6.313513513513512407e+02 2.967036035392398366e-02
6.342342342342341226e+02 3.511733719351920607e-02
6.371171171171171181e+02 4.093243663527158099e-02
6.400000000000000000e+02 4.707383416575763174e-02
6.428828828828828819e+02 5.348357358006102652e-02
6.457657657657656500e+02 6.007555337481550184e-02
6.486486486486486456e+02 6.671089191119310147e-02
6.515315315315315274e+02 7.314516386349748100e-02
6.544144144144144093e+02 7.891696391893297802e-02
6.572972972972972912e+02 8.316563845099175789e-02
6.601801801801801730e+02 8.465916355386005065e-02
6.630630630630629412e+02 8.275937151663208258e-02
6.659459459459459367e+02 7.825628019529416723e-02
6.688288288288287049e+02 7.236463717528913986e-02
6.717117117117115868e+02 6.588598565486038228e-02
6.745945945945945823e+02 5.924561843689567231e-02
6.774774774774774642e+02 5.267025357842187311e-02
6.803603603603603460e+02 4.629009087775198816e-02
6.832432432432431142e+02 4.018672503526631717e-02
6.861261261261261097e+02 3.441560160974323906e-02
6.890090090090088779e+02 2.901704127654548479e-02
6.918918918918918735e+02 2.402195676903219612e-02
6.947747747747748690e+02 1.945497484385125264e-02
6.976576576576576372e+02 1.533622046327237642e-02
7.005405405405404053e+02 1.168237673306651153e-02
7.034234234234234009e+02 8.507335250735848300e-03
7.063063063063062827e+02 5.822605701106531133e-03
7.091891891891890509e+02 3.637578994795668836e-03
7.120720720720720465e+02 1.959698453672717618e-03
7.149549549549549283e+02 7.945714246789872814e-04
7.178378378378378102e+02 1.460408992207004554e-04
7.207207207207205784e+02 1.622896904982230702e-05
7.236036036036035739e+02 4.055589868808609218e-04
7.264864864864863421e+02 1.312759836842025945e-03
7.293693693693693376e+02 2.734852963034637569e-03
7.322522522522522195e+02 4.667120179099243545e-03
7.351351351351351013e+02 7.103047252364450871e-03
7.380180180180179832e+02 1.003423416487944295e-02
7.409009009009007514e+02 1.345025680588268595e-02
7.437837837837837469e+02 1.733845495136911163e-02
7.466666666666665151e+02 2.168360464218867939e-02
7.495495495495495106e+02 2.646740354982440868e-02
7.524324324324325062e+02 3.166764374028527979e-02
7.553153153153152743e+02 3.725684257410950134e-02
7.581981981981981562e+02 4.319989497418672691e-02
7.610810810810810381e+02 4.944987442152208590e-02
7.639639639639639199e+02 5.594014778771960739e-02
7.668468468468468018e+02 6.256874737575504608e-02
7.697297297297296836e+02 6.916571082483528865e-02
7.726126126126126792e+02 7.542269400610968066e-02
7.754954954954954474e+02 8.075110435783540430e-02
7.783783783783782155e+02 8.411212651074329028e-02
7.812612612612612111e+02 8.432901779689881694e-02
7.841441441441439792e+02 8.130521945197109746e-02
7.870270270270269748e+02 7.615602526730774757e-02
7.899099099099098567e+02 6.997503039005775749e-02
7.927927927927927385e+02 6.339968356521846760e-02
7.956756756756756204e+02 5.676380160083266402e-02
7.985585585585583885e+02 5.024968057763162799e-02
8.014414414414413841e+02 4.396549076129485645e-02
8.043243243243243796e+02 3.798119872804596453e-02
8.072072072072071478e+02 3.234565659053566244e-02
8.100900900900901433e+02 2.709516518330318258e-02
8.129729729729729115e+02 2.225800450110368423e-02
8.158558558558557934e+02 1.785695224891454755e-02
8.187387387387386752e+02 1.391074538490512900e-02
8.216216216216216708e+02 1.043495961317250989e-02
8.245045045045044390e+02 7.442554717859120768e-03
8.273873873873873208e+02 4.944220849537639927e-03
8.302702702702703164e+02 2.948602255503261597e-03
8.331531531531530845e+02 1.462443165679299609e-03
8.360360360360358527e+02 4.906826110428667929e-04
8.389189189189188482e+02 3.651440616285394968e-05
8.418018018018018438e+02 1.014220235005763279e-04
8.446846846846846120e+02 6.851938031601257110e-04
8.475675675675674938e+02 1.785920820146532370e-03
8.504504504504503757e+02 3.399977085508868856e-03
8.533333333333332575e+02 5.521979046441284622e-03
8.562162162162160257e+02 8.144718012408824412e-03
8.590990990990990213e+02 1.125905441578346593e-02
8.619819819819820168e+02 1.485375551442408466e-02
8.648648648648647850e+02 1.891524615005883356e-02
8.677477477477477805e+02 2.342722156117140256e-02
8.706306306306305487e+02 2.837003435382812883e-02
8.735135135135134306e+02 3.371969897598940669e-02
8.763963963963963124e+02 3.944622328725232163e-02
8.792792792792793080e+02 4.551070430508973030e-02
8.821621621621620761e+02 5.186004200341678971e-02
8.850450450450449580e+02 5.841681413960931463e-02
8.879279279279279535e+02 6.505879077815550360e-02
8.908108108108107217e+02 7.157542043321801772e-02
8.936936936936934899e+02 7.757459658354570742e-02
8.965765765765764854e+02 8.231206160150168760e-02
8.994594594594594810e+02 8.460372871068326528e-02
9.023423423423422491e+02 8.352819212449770492e-02
9.052252252252251310e+02 7.955452480414935967e-02
9.081081081081080129e+02 7.391585977564446575e-02
9.109909909909908947e+02 6.753291767637636944e-02
9.138738738738738903e+02 6.090629146881433587e-02
9.167567567567566584e+02 5.429980441243996425e-02
9.196396396396396540e+02 4.786180443801367479e-02
9.225225225225224222e+02 4.168326641866763188e-02
9.254054054054053040e+02 3.582483699552654194e-02
9.282882882882881859e+02 3.032993769305290452e-02
9.311711711711710677e+02 2.523146785435321712e-02
9.340540540540539496e+02 2.055541996281579076e-02
9.369369369369368314e+02 1.632292371133239536e-02
9.398198198198195996e+02 1.255144937030456577e-02
9.427027027027027088e+02 9.255540633364109024e-03
9.455855855855855907e+02 6.447273429648988155e-03
9.484684684684684726e+02 4.136549404001441457e-03
9.513513513513513544e+02 2.331286394929656808e-03
9.542342342342341226e+02 1.037542715736362343e-03
9.571171171171171181e+02 2.595974212459941700e-04
9.599999999999998863e+02 0.000000000000000000e+00
9.628828828828827682e+02 2.595974212460669200e-04
9.657657657657656500e+02 1.037542715736289702e-03
9.686486486486485319e+02 2.331286394929511525e-03
9.715315315315313001e+02 4.136549404001441457e-03
9.744144144144142956e+02 6.447273429648187580e-03
9.772972972972970638e+02 9.255540633363600750e-03
9.801801801801801730e+02 1.255144937030427434e-02
9.830630630630630549e+02 1.632292371133239536e-02
9.859459459459460504e+02 2.055541996281513503e-02
9.888288288288288186e+02 2.523146785435270711e-02
9.917117117117115868e+02 3.032993769305203022e-02
9.945945945945945823e+02 3.582483699552639622e-02
9.974774774774774642e+02 4.168326641866668819e-02
1.000360360360360232e+03 4.786180443801309192e-02
1.003243243243243228e+03 5.429980441243952710e-02
1.006126126126125996e+03 6.090629146881375300e-02
1.009009009009008878e+03 6.753291767637549514e-02
1.011891891891891760e+03 7.391585977564352206e-02
1.014774774774774755e+03 7.955452480414884620e-02
1.017657657657657751e+03 8.352819212449756614e-02
1.020540540540540519e+03 8.460372871068347345e-02
1.023423423423423401e+03 8.231206160150175699e-02
1.026306306306306396e+03 7.757459658354629028e-02
1.029189189189189165e+03 7.157542043321873937e-02
1.032072072072071933e+03 6.505879077815593381e-02
1.034954954954954928e+03 5.841681413960989749e-02
1.037837837837837696e+03 5.186004200341729625e-02
1.040720720720720465e+03 4.551070430509045889e-02
1.043603603603603460e+03 3.944622328725326532e-02
1.046486486486486228e+03 3.371969897599035038e-02
1.049369369369369224e+03 2.837003435382856598e-02
1.052252252252252219e+03 2.342722156117183971e-02
1.055135135135135215e+03 1.891524615005883356e-02
1.058018018018017983e+03 1.485375551442422865e-02
1.060900900900900751e+03 1.125905441578390308e-02
1.063783783783783747e+03 8.144718012408970129e-03
1.066666666666666515e+03 5.521979046442375763e-03
1.069549549549549511e+03 3.399977085509523714e-03
1.072432432432432506e+03 1.785920820146750729e-03
1.075315315315315274e+03 6.851938031604895693e-04
1.078198198198198043e+03 1.014220235007946049e-04
1.081081081081081038e+03 3.651440616299946317e-05
1.083963963963963806e+03 4.906826110430122928e-04
1.086846846846846574e+03 1.462443165679081251e-03
1.089729729729729797e+03 2.948602255503406881e-03
1.092612612612612565e+03 4.944220849538440501e-03
1.095495495495495561e+03 7.442554717859266485e-03
1.098378378378378329e+03 1.043495961317301990e-02
1.101261261261261325e+03 1.391074538490549156e-02
1.104144144144144093e+03 1.785695224891447816e-02
1.107027027027026861e+03 2.225800450110375708e-02
1.109909909909909857e+03 2.709516518330325544e-02
1.112792792792792625e+03 3.234565659053551673e-02
1.115675675675675620e+03 3.798119872804552738e-02
1.118558558558558389e+03 4.396549076129419725e-02
1.121441441441441384e+03 5.024968057763170431e-02
1.124324324324324152e+03 5.676380160083230320e-02
1.127207207207207148e+03 6.339968356521832882e-02
1.130090090090090143e+03 6.997503039005753545e-02
1.132972972972972912e+03 7.615602526730716471e-02
1.135855855855855907e+03 8.130521945197059785e-02
1.138738738738738675e+03 8.432901779689852551e-02
1.141621621621621671e+03 8.411212651074335966e-02
1.144504504504504439e+03 8.075110435783540430e-02
1.147387387387387207e+03 7.542269400610981944e-02
