Theta (degrees)	Normalized Energy
0.000000000000000000e+00 2.910363897001290726e-16
1.439999999999999891e-01 6.478716328635202132e-07
2.879999999999999782e-01 2.591481266969586864e-06
4.319999999999999951e-01 5.830813110538176416e-06
5.759999999999999565e-01 1.036584084369338536e-05
7.199999999999998623e-01 1.619652762020965388e-05
8.639999999999999902e-01 2.332282606052687800e-05
1.008000000000000007e+00 3.174467825749840321e-05
1.151999999999999913e+00 4.146201576926060277e-05
1.296000000000000041e+00 5.247475962265257338e-05
1.439999999999999725e+00 6.478282030674058862e-05
1.584000000000000075e+00 7.838609777383667980e-05
1.727999999999999980e+00 9.328448143411453538e-05
1.872000000000000108e+00 1.094778501577194329e-04
2.016000000000000014e+00 1.269660722648730444e-04
2.160000000000000142e+00 1.457490055311848884e-04
2.303999999999999826e+00 1.658264971739735342e-04
2.447999999999999954e+00 1.871983838575780941e-04
2.592000000000000082e+00 2.098644916853546305e-04
2.736000000000000210e+00 2.338246361946559192e-04
2.879999999999999449e+00 2.590786223540664907e-04
3.024000000000000021e+00 2.856262445564904887e-04
3.168000000000000149e+00 3.134672866173328397e-04
3.311999999999999833e+00 3.426015217651131521e-04
3.455999999999999961e+00 3.730287126387738048e-04
3.600000000000000533e+00 4.047486112804766709e-04
3.744000000000000217e+00 4.377609591304372190e-04
3.888000000000000345e+00 4.720654870170294345e-04
4.032000000000000028e+00 5.076619151551847774e-04
4.176000000000000156e+00 5.445499531361337872e-04
4.320000000000000284e+00 5.827292999184556684e-04
4.464000000000000412e+00 6.221996438237141058e-04
4.607999999999999652e+00 6.629606625277248292e-04
4.751999999999999780e+00 7.050120230509524010e-04
4.895999999999999908e+00 7.483533817515248101e-04
5.040000000000000036e+00 7.929843843122098184e-04
5.184000000000000163e+00 8.389046657385959950e-04
5.328000000000000291e+00 8.861138503439583381e-04
5.472000000000000419e+00 9.346115517392185627e-04
5.616000000000000547e+00 9.843973728263229021e-04
5.759999999999998899e+00 1.035470905785655388e-03
5.903999999999999915e+00 1.087831732063814557e-03
6.048000000000000043e+00 1.141479422365754282e-03
6.192000000000000171e+00 1.196413536640597531e-03
6.336000000000000298e+00 1.252633624071303057e-03
6.479999999999999538e+00 1.310139223061496669e-03
6.623999999999999666e+00 1.368929861224047872e-03
6.767999999999999794e+00 1.429005055366445922e-03
6.911999999999999922e+00 1.490364311479448018e-03
7.056000000000000050e+00 1.553007124722237875e-03
7.200000000000001066e+00 1.616932979409037340e-03
7.344000000000000306e+00 1.682141348994117954e-03
7.488000000000000433e+00 1.748631696059650730e-03
7.632000000000000561e+00 1.816403472294095614e-03
7.776000000000000689e+00 1.885456118484927363e-03
7.920000000000000817e+00 1.955789064496587203e-03
8.064000000000000057e+00 2.027401729257534424e-03
8.208000000000000185e+00 2.100293520741763117e-03
8.352000000000000313e+00 2.174463835951559454e-03
8.496000000000000441e+00 2.249912060901785530e-03
8.640000000000000568e+00 2.326637570598269911e-03
8.784000000000000696e+00 2.404639729025293774e-03
8.928000000000000824e+00 2.483917889119613854e-03
9.071999999999999176e+00 2.564471392756350037e-03
9.215999999999999304e+00 2.646299570725991167e-03
9.359999999999999432e+00 2.729401742717370034e-03
9.503999999999999559e+00 2.813777217292634785e-03
9.647999999999999687e+00 2.899425291871387915e-03
9.791999999999999815e+00 2.986345252701361631e-03
9.935999999999999943e+00 3.074536374845834169e-03
1.008000000000000007e+01 3.163997922151176589e-03
1.022400000000000020e+01 3.254729147230847348e-03
1.036800000000000033e+01 3.346729291437524397e-03
1.051200000000000045e+01 3.439997584840914606e-03
1.065600000000000058e+01 3.534533246200977433e-03
1.080000000000000071e+01 3.630335482944060770e-03
1.094400000000000084e+01 3.727403491135834052e-03
1.108800000000000097e+01 3.825736455455387101e-03
1.123200000000000109e+01 3.925333549166997935e-03
1.137599999999999767e+01 4.026193934093648744e-03
1.151999999999999780e+01 4.128316760588361320e-03
1.166399999999999970e+01 4.231701167503051399e-03
1.180799999999999983e+01 4.336346282162049405e-03
1.195199999999999996e+01 4.442251220330010672e-03
1.209600000000000009e+01 4.549415086179756269e-03
1.224000000000000021e+01 4.657836972262878981e-03
1.238400000000000034e+01 4.767515959477511278e-03
1.252800000000000047e+01 4.878451117031580402e-03
1.267200000000000060e+01 4.990641502414360636e-03
1.281600000000000072e+01 5.104086161356166142e-03
1.295999999999999908e+01 5.218784127798517178e-03
1.310399999999999920e+01 5.334734423853978655e-03
1.324799999999999933e+01 5.451936059772035520e-03
1.339199999999999946e+01 5.570388033900092704e-03
1.353599999999999959e+01 5.690089332645862849e-03
1.367999999999999972e+01 5.811038930436398207e-03
1.382399999999999984e+01 5.933235789680039486e-03
1.396799999999999997e+01 6.056678860725380961e-03
1.411200000000000010e+01 6.181367081817975249e-03
1.425600000000000023e+01 6.307299379058866479e-03
1.440000000000000213e+01 6.434474666359254157e-03
1.454400000000000048e+01 6.562891845399754925e-03
1.468800000000000061e+01 6.692549805579683583e-03
1.483200000000000074e+01 6.823447423974858539e-03
1.497600000000000087e+01 6.955583565288119691e-03
1.512000000000000099e+01 7.088957081800948724e-03
1.526400000000000112e+01 7.223566813324717312e-03
1.540800000000000125e+01 7.359411587148301931e-03
1.555200000000000138e+01 7.496490217989407526e-03
1.569600000000000151e+01 7.634801507938834310e-03
1.584000000000000163e+01 7.774344246407801154e-03
1.598400000000000176e+01 7.915117210073882928e-03
1.612800000000000011e+01 8.057119162822368175e-03
1.627200000000000202e+01 8.200348855691619657e-03
1.641600000000000037e+01 8.344805026811586215e-03
1.656000000000000227e+01 8.490486401346114542e-03
1.670400000000000063e+01 8.637391691430655258e-03
1.684800000000000253e+01 8.785519596110138996e-03
1.699200000000000088e+01 8.934868801274501934e-03
1.713599999999999923e+01 9.085437979592991820e-03
1.728000000000000114e+01 9.237225790450352692e-03
1.742399999999999949e+01 9.390230879874941414e-03
1.756800000000000139e+01 9.544451880471425606e-03
1.771199999999999974e+01 9.699887411348894969e-03
1.785600000000000165e+01 9.856536078049055877e-03
1.800000000000000000e+01 1.001439647247040488e-02
1.814399999999999835e+01 1.017346717279496958e-02
1.828800000000000026e+01 1.033374674340797883e-02
1.843199999999999861e+01 1.049523373482088087e-02
1.857600000000000051e+01 1.065792668358920767e-02
1.871999999999999886e+01 1.082182411223056237e-02
1.886400000000000077e+01 1.098692452914095882e-02
1.900799999999999912e+01 1.115322642850517278e-02
1.915199999999999747e+01 1.132072829021467733e-02
1.929599999999999937e+01 1.148942857977064587e-02
1.943999999999999773e+01 1.165932574819745354e-02
1.958399999999999963e+01 1.183041823194422131e-02
1.972799999999999798e+01 1.200270445279205851e-02
1.987199999999999989e+01 1.217618281775430591e-02
2.001599999999999824e+01 1.235085171897437953e-02
2.016000000000000014e+01 1.252670953362689313e-02
2.030399999999999849e+01 1.270375462380910793e-02
2.044800000000000040e+01 1.288198533643534517e-02
2.059199999999999875e+01 1.306140000312640791e-02
2.073600000000000065e+01 1.324199694009860900e-02
2.087999999999999901e+01 1.342377444804729487e-02
2.102400000000000091e+01 1.360673081203166157e-02
2.116799999999999926e+01 1.379086430135267015e-02
2.131200000000000117e+01 1.397617316943095163e-02
2.145599999999999952e+01 1.416265565368399031e-02
2.160000000000000142e+01 1.435030997539326995e-02
2.174399999999999977e+01 1.453913433957708737e-02
2.188800000000000168e+01 1.472912693485536537e-02
2.203200000000000003e+01 1.492028593331024867e-02
2.217600000000000193e+01 1.511260949035019008e-02
2.232000000000000028e+01 1.530609574456020909e-02
2.246400000000000219e+01 1.550074281756234386e-02
2.260799999999999699e+01 1.569654881385972381e-02
2.275199999999999534e+01 1.589351182068465471e-02
2.289599999999999724e+01 1.609162990784356387e-02
2.303999999999999559e+01 1.629090112755213204e-02
2.318400000000000105e+01 1.649132351427412546e-02
2.332799999999999940e+01 1.669289508455100435e-02
2.347200000000000131e+01 1.689561383683136145e-02
2.361599999999999966e+01 1.709947775129115263e-02
2.376000000000000156e+01 1.730448478965738307e-02
2.390399999999999991e+01 1.751063289502003545e-02
2.404800000000000182e+01 1.771791999164501127e-02
2.419200000000000017e+01 1.792634398477883223e-02
2.433600000000000207e+01 1.813590276045189825e-02
2.448000000000000043e+01 1.834659418527449445e-02
2.462400000000000233e+01 1.855841610623034862e-02
2.476800000000000068e+01 1.877136635046192797e-02
2.491200000000000259e+01 1.898544272505311298e-02
2.505600000000000094e+01 1.920064301680857871e-02
2.520000000000000284e+01 1.941696499202221621e-02
2.534400000000000119e+01 1.963440639624400644e-02
2.548800000000000310e+01 1.985296495404187747e-02
2.563200000000000145e+01 2.007263836875382637e-02
2.577600000000000335e+01 2.029342432223913209e-02
2.591999999999999815e+01 2.051532047461804287e-02
2.606400000000000006e+01 2.073832446400948257e-02
2.620799999999999841e+01 2.096243390626007994e-02
2.635199999999999676e+01 2.118764639466783409e-02
2.649599999999999866e+01 2.141395949969698495e-02
2.663999999999999702e+01 2.164137076868754075e-02
2.678399999999999892e+01 2.186987772555755785e-02
2.692799999999999727e+01 2.209947787049631671e-02
2.707199999999999918e+01 2.233016867965130492e-02
2.721599999999999753e+01 2.256194760480779299e-02
2.735999999999999943e+01 2.279481207305850826e-02
2.750399999999999778e+01 2.302875948646602305e-02
2.764799999999999969e+01 2.326378722171679528e-02
2.779199999999999804e+01 2.349989262976632035e-02
2.793599999999999994e+01 2.373707303547467964e-02
2.807999999999999829e+01 2.397532573723227048e-02
2.822400000000000020e+01 2.421464800657904121e-02
2.836799999999999855e+01 2.445503708780849550e-02
2.851200000000000045e+01 2.469649019756618019e-02
2.865600000000000591e+01 2.493900452443692864e-02
2.880000000000000426e+01 2.518257722851842753e-02
2.894400000000000617e+01 2.542720544098786561e-02
2.908800000000000097e+01 2.567288626365357360e-02
2.923199999999999932e+01 2.591961676849556528e-02
2.937600000000000122e+01 2.616739399719755776e-02
2.951999999999999957e+01 2.641621496066223068e-02
2.966400000000000148e+01 2.666607663851371796e-02
2.980799999999999983e+01 2.691697597859060015e-02
2.995200000000000173e+01 2.716890989642214635e-02
3.009600000000000009e+01 2.742187527468934599e-02
3.024000000000000199e+01 2.767586896267772850e-02
3.038400000000000034e+01 2.793088777570711112e-02
3.052800000000000225e+01 2.818692849455036245e-02
3.067200000000000060e+01 2.844398786483704270e-02
3.081600000000000250e+01 2.870206259643976257e-02
3.096000000000000085e+01 2.896114936284038127e-02
3.110400000000000276e+01 2.922124480048514730e-02
3.124800000000000111e+01 2.948234550811638932e-02
3.139200000000000301e+01 2.974444804608866386e-02
3.153600000000000136e+01 3.000754893566525555e-02
3.168000000000000327e+01 3.027164465829399256e-02
3.182400000000000162e+01 3.053673165486320978e-02
3.196800000000000352e+01 3.080280632493911236e-02
3.211200000000000188e+01 3.106986502597754163e-02
3.225600000000000023e+01 3.133790407251520888e-02
3.240000000000000568e+01 3.160691973534024424e-02
3.254400000000000404e+01 3.187690824063456330e-02
3.268800000000000239e+01 3.214786576909436921e-02
3.283200000000000074e+01 3.241978845502518219e-02
3.297599999999999909e+01 3.269267238541080645e-02
3.312000000000000455e+01 3.296651359895377137e-02
3.326400000000000290e+01 3.324130808508931473e-02
3.340800000000000125e+01 3.351705178296843224e-02
3.355199999999999960e+01 3.379374058041675899e-02
3.369600000000000506e+01 3.407137031285409345e-02
3.383999999999999631e+01 3.434993676218840025e-02
3.398400000000000176e+01 3.462943565567449394e-02
3.412800000000000011e+01 3.490986266473986716e-02
3.427199999999999847e+01 3.519121340377411034e-02
3.441599999999999682e+01 3.547348342888155537e-02
3.456000000000000227e+01 3.575666823659936350e-02
3.470400000000000063e+01 3.604076326257117657e-02
3.484799999999999898e+01 3.632576388018626118e-02
3.499199999999999733e+01 3.661166539917543733e-02
3.513600000000000279e+01 3.689846306415739408e-02
3.528000000000000114e+01 3.718615205315276007e-02
3.542399999999999949e+01 3.747472747603954046e-02
3.556799999999999784e+01 3.776418437297115321e-02
3.571200000000000330e+01 3.805451771273501982e-02
3.585600000000000165e+01 3.834572239106821823e-02
3.600000000000000000e+01 3.863779322891729845e-02
3.614399999999999835e+01 3.893072497063843063e-02
3.628799999999999670e+01 3.922451228215013269e-02
3.643200000000000216e+01 3.951914974901891281e-02
3.657600000000000051e+01 3.981463187448484875e-02
3.671999999999999886e+01 4.011095307742940097e-02
3.686399999999999721e+01 4.040810769027058935e-02
3.700800000000000267e+01 4.070608995679435987e-02
3.715200000000000102e+01 4.100489402991464027e-02
3.729599999999999937e+01 4.130451396935853892e-02
3.743999999999999773e+01 4.160494373927798445e-02
3.758400000000000318e+01 4.190617720578195676e-02
3.772800000000000153e+01 4.220820813438604796e-02
3.787199999999999989e+01 4.251103018737946437e-02
3.801599999999999824e+01 4.281463692110171887e-02
3.816000000000000369e+01 4.311902178312876366e-02
3.830399999999999494e+01 4.342417810936871625e-02
3.844800000000000040e+01 4.373009912105298852e-02
3.859199999999999875e+01 4.403677792162803001e-02
3.873599999999999710e+01 4.434420749354364005e-02
3.887999999999999545e+01 4.465238069493133316e-02
3.902400000000000091e+01 4.496129025615944880e-02
3.916799999999999926e+01 4.527092877628727252e-02
3.931199999999999761e+01 4.558128871937794369e-02
3.945599999999999596e+01 4.589236241069519912e-02
3.959999999999999432e+01 4.620414203276310833e-02
3.974399999999999977e+01 4.651661962128741251e-02
3.988799999999999812e+01 4.682978706093527538e-02
4.003199999999999648e+01 4.714363608096458491e-02
4.017599999999999483e+01 4.745815825069665123e-02
4.032000000000000028e+01 4.777334497483372300e-02
4.046399999999999864e+01 4.808918748859773717e-02
4.060799999999999699e+01 4.840567685270819737e-02
4.075199999999999534e+01 4.872280394816948246e-02
4.089600000000000080e+01 4.904055947087033324e-02
4.103999999999999915e+01 4.935893392599124962e-02
4.118399999999999750e+01 4.967791762220467866e-02
4.132799999999999585e+01 4.999750066566366336e-02
4.147200000000000131e+01 5.031767295376794735e-02
4.161599999999999966e+01 5.063842416870171365e-02
4.175999999999999801e+01 5.095974377073242412e-02
4.190399999999999636e+01 5.128162099125674334e-02
4.204800000000000182e+01 5.160404482559120820e-02
4.219200000000000017e+01 5.192700402548815208e-02
4.233599999999999852e+01 5.225048709137586345e-02
4.247999999999999687e+01 5.257448226429811688e-02
4.262400000000000233e+01 5.289897751755576888e-02
4.276800000000000068e+01 5.322396054802542437e-02
4.291199999999999903e+01 5.354941876714820748e-02
4.305599999999999739e+01 5.387533929157550805e-02
4.320000000000000284e+01 5.420170893345150481e-02
4.334400000000000119e+01 5.452851419032390956e-02
4.348799999999999955e+01 5.485574123466408630e-02
4.363199999999999790e+01 5.518337590297926754e-02
4.377600000000000335e+01 5.551140368450473150e-02
4.392000000000000171e+01 5.583980970944794203e-02
4.406400000000000006e+01 5.616857873678068880e-02
4.420799999999999841e+01 5.649769514154726752e-02
4.435200000000000387e+01 5.682714290167156790e-02
4.449600000000000222e+01 5.715690558425066958e-02
4.464000000000000057e+01 5.748696633129907196e-02
4.478399999999999892e+01 5.781730784493157443e-02
4.492800000000000438e+01 5.814791237195832130e-02
4.507200000000000273e+01 5.847876168786436679e-02
4.521599999999999397e+01 5.880983708015232597e-02
4.535999999999999233e+01 5.914111933101869056e-02
4.550399999999999068e+01 5.947258869933891301e-02
4.564799999999998903e+01 5.980422490192784102e-02
4.579199999999999449e+01 6.013600709405240996e-02
4.593599999999999284e+01 6.046791384916176681e-02
4.607999999999999119e+01 6.079992313780055446e-02
4.622400000000000375e+01 6.113201230567772565e-02
4.636800000000000210e+01 6.146415805085595624e-02
4.651200000000000045e+01 6.179633640002122480e-02
4.665599999999999881e+01 6.212852268379991799e-02
4.680000000000000426e+01 6.246069151109109874e-02
4.694400000000000261e+01 6.279281674236225630e-02
4.708800000000000097e+01 6.312487146188348885e-02
4.723199999999999932e+01 6.345682794885069977e-02
4.737600000000000477e+01 6.378865764735607014e-02
4.752000000000000313e+01 6.412033113516928118e-02
4.766400000000000148e+01 6.445181809128258665e-02
4.780799999999999983e+01 6.478308726217441027e-02
4.795200000000000529e+01 6.511410642674991811e-02
4.809600000000000364e+01 6.544484235991078480e-02
4.824000000000000199e+01 6.577526079471611442e-02
4.838400000000000034e+01 6.610532638307860254e-02
4.852800000000000580e+01 6.643500265496057877e-02
4.867200000000000415e+01 6.676425197601926209e-02
4.881600000000000250e+01 6.709303550366417512e-02
4.896000000000000085e+01 6.742131314147857546e-02
4.910400000000000631e+01 6.774904349196744779e-02
4.924800000000000466e+01 6.807618380759139498e-02
4.939200000000000301e+01 6.840268994005882508e-02
4.953600000000000136e+01 6.872851628782848665e-02
4.968000000000000682e+01 6.905361574181284601e-02
4.982400000000000517e+01 6.937793962924469759e-02
4.996800000000000352e+01 6.970143765569758454e-02
5.011200000000000188e+01 7.002405784524495802e-02
5.025600000000000733e+01 7.034574647876043474e-02
5.040000000000000568e+01 7.066644803035750100e-02
5.054400000000000404e+01 7.098610510199911128e-02
5.068800000000000239e+01 7.130465835629293259e-02
5.083200000000000784e+01 7.162204644752159788e-02
5.097600000000000620e+01 7.193820595097370763e-02
5.112000000000000455e+01 7.225307129064084677e-02
5.126400000000000290e+01 7.256657466538452006e-02
5.140800000000000836e+01 7.287864597369750341e-02
5.155200000000000671e+01 7.318921273719686260e-02
5.169599999999999795e+01 7.349820002302935584e-02
5.183999999999999631e+01 7.380553036538978207e-02
5.198399999999999466e+01 7.411112368640354608e-02
5.212800000000000011e+01 7.441489721663778478e-02
5.227199999999999847e+01 7.471676541557971396e-02
5.241599999999999682e+01 7.501663989244006236e-02
5.255999999999999517e+01 7.531442932770518461e-02
5.270399999999999352e+01 7.561003939592134127e-02
5.284799999999999898e+01 7.590337269023517131e-02
5.299199999999999733e+01 7.619432864930243687e-02
5.313599999999999568e+01 7.648280348722982791e-02
5.327999999999999403e+01 7.676869012730416775e-02
5.342399999999999949e+01 7.705187814032432581e-02
5.356799999999999784e+01 7.733225368845576819e-02
5.371199999999999619e+01 7.760969947559502591e-02
5.385599999999999454e+01 7.788409470534223000e-02
5.400000000000000000e+01 7.815531504775333205e-02
5.414399999999999835e+01 7.842323261616031271e-02
5.428799999999999670e+01 7.868771595542169150e-02
5.443199999999999505e+01 7.894863004308051713e-02
5.457600000000000051e+01 7.920583630498490013e-02
5.471999999999999886e+01 7.945919264702570872e-02
5.486399999999999721e+01 7.970855350471041378e-02
5.500799999999999557e+01 7.995376991237790332e-02
5.515200000000000102e+01 8.019468959390507745e-02
5.529599999999999937e+01 8.043115707679959758e-02
5.543999999999999773e+01 8.066301383158866467e-02
5.558399999999999608e+01 8.089009843841021841e-02
5.572800000000000153e+01 8.111224678266881760e-02
5.587199999999999989e+01 8.132929228155776069e-02
5.601599999999999824e+01 8.154106614312531254e-02
5.615999999999999659e+01 8.174739765942001801e-02
5.630400000000000205e+01 8.194811453503565712e-02
5.644800000000000040e+01 8.214304325212490321e-02
5.659199999999999875e+01 8.233200947264145142e-02
5.673599999999999710e+01 8.251483847819685025e-02
5.688000000000000256e+01 8.269135564747905065e-02
5.702400000000000091e+01 8.286138697071074311e-02
5.716799999999999926e+01 8.302475960006365507e-02
5.731200000000001182e+01 8.318130243434941617e-02
