Theta (degrees)	Normalized Energy
0.000000000000000000e+00 2.910363900447956155e-16
5.764611689351480939e-01 1.038244594542515550e-05
1.152922337870296188e+00 4.152843185305878554e-05
1.729383506805444393e+00 9.343390141514714038e-05
2.305844675740592375e+00 1.660920923493630283e-04
2.882305844675740580e+00 2.594935337373508832e-04
3.458767013610888785e+00 3.736260422765417004e-04
4.035228182546037878e+00 5.084747174218827220e-04
4.611689351481184751e+00 6.640219353861950315e-04
5.188150520416332512e+00 8.402473419745664154e-04
5.764611689351481161e+00 1.037127844192098922e-03
6.341072858286629810e+00 1.254637600592923771e-03
6.917534027221777571e+00 1.492748010296124535e-03
7.493995196156925331e+00 1.751427700616180801e-03
8.070456365092075757e+00 2.030642513218367147e-03
8.646917534027222629e+00 2.330355488723801979e-03
9.223378702962369502e+00 2.650526849669410621e-03
9.799839871897518151e+00 2.991113981704576243e-03
1.037630104083266502e+01 3.352071412918676552e-03
1.095276220976781545e+01 3.733350791164039961e-03
1.152922337870296232e+01 4.134900859225664957e-03
1.210568454763811097e+01 4.556667427677639319e-03
1.268214571657325962e+01 4.998593345254980815e-03
1.325860688550840827e+01 5.460618466532300187e-03
1.383506805444355514e+01 5.942679616703521774e-03
1.441152922337870379e+01 6.444710553219141699e-03
1.498799039231385066e+01 6.966641924011516586e-03
1.556445156124899931e+01 7.508401222029963476e-03
1.614091273018415151e+01 8.069912735747834451e-03
1.671737389911929483e+01 8.651097495296702911e-03
1.729383506805444526e+01 9.251873213836357343e-03
1.787029623698959213e+01 9.872154223709126916e-03
1.844675740592473900e+01 1.051185140692460253e-02
1.902321857485988943e+01 1.117087211941079905e-02
1.959967974379503630e+01 1.184912010846735260e-02
2.017614091273018673e+01 1.254649542274709727e-02
2.075260208166533005e+01 1.326289431404307009e-02
2.132906325060048047e+01 1.399820913007193864e-02
2.190552441953563090e+01 1.475232819734385685e-02
2.248198558847077777e+01 1.552513569312094499e-02
2.305844675740592464e+01 1.631651150532668904e-02
2.363490792634107507e+01 1.712633107916395475e-02
2.421136909527622194e+01 1.795446524902196556e-02
2.478783026421137237e+01 1.880078005410387720e-02
2.536429143314651924e+01 1.966513653599904696e-02
2.594075260208166256e+01 2.054739051621006299e-02
2.651721377101681654e+01 2.144739235139837483e-02
2.709367493995195986e+01 2.236498666380788009e-02
2.767013610888711028e+01 2.330001204403748388e-02
2.824659727782225715e+01 2.425230072290198921e-02
2.882305844675740758e+01 2.522167820874707950e-02
2.939951961569255445e+01 2.620796288605161881e-02
2.997598078462770133e+01 2.721096557060276658e-02
3.055244195356285175e+01 2.823048901585671969e-02
3.112890312249799862e+01 2.926632736434223517e-02
3.170536429143314550e+01 3.031826553710166225e-02
3.228182546036830303e+01 3.138607855311133926e-02
3.285828662930344990e+01 3.246953076945547495e-02
3.343474779823858967e+01 3.356837503164460806e-02
3.401120896717373654e+01 3.468235172183953274e-02
3.458767013610889052e+01 3.581118769085775422e-02
3.516413130504403739e+01 3.695459505763104557e-02
3.574059247397918426e+01 3.811226985715416432e-02
3.631705364291433114e+01 3.928389051492699874e-02
3.689351481184947801e+01 4.046911612225184696e-02
3.746997598078462488e+01 4.166758448250269115e-02
3.804643714971977886e+01 4.287890989339955550e-02
3.862289831865492573e+01 4.410268062435106912e-02
3.919935948759007260e+01 4.533845604079770469e-02
3.977582065652522658e+01 4.658576331902827133e-02
4.035228182546037345e+01 4.784409368486196995e-02
4.092874299439551322e+01 4.911289809759027819e-02
4.150520416333066009e+01 5.039158228622663688e-02
4.208166533226581407e+01 5.167950102807532253e-02
4.265812650120096094e+01 5.297595153924244266e-02
4.323458767013610782e+01 5.428016582252156302e-02
4.381104883907126180e+01 5.559130178929324456e-02
4.438751000800640867e+01 5.690843293807932440e-02
4.496397117694155554e+01 5.823053633233535309e-02
4.554043234587670241e+01 5.955647857336696105e-02
4.611689351481184929e+01 6.088499941039376973e-02
4.669335468374699616e+01 6.221469256875021558e-02
4.726981585268215014e+01 6.354398330985774890e-02
4.784627702161729701e+01 6.487110216524585860e-02
4.842273819055244388e+01 6.619405421641384735e-02
4.899919935948759786e+01 6.751058323178285581e-02
4.957566052842274473e+01 6.881812993685981761e-02
5.015212169735789161e+01 7.011378370989389264e-02
5.072858286629303848e+01 7.139422710347237411e-02
5.130504403522817825e+01 7.265567285579294099e-02
5.188150520416332512e+01 7.389379356698495827e-02
5.245796637309847199e+01 7.510364510864017684e-02
5.303442754203363307e+01 7.627958628621571424e-02
5.361088871096877284e+01 7.741519950162580044e-02
5.418734987990391971e+01 7.850322039244318761e-02
5.476381104883908080e+01 7.953548880465695359e-02
5.534027221777422056e+01 8.050293889322811258e-02
5.591673338670936744e+01 8.139565201487605761e-02
5.649319455564451431e+01 8.220300084531292906e-02
5.706965572457966118e+01 8.291391403480985467e-02
5.764611689351481516e+01 8.351728375615991018e-02
5.822257806244995493e+01 8.400251965115898556e-02
5.879903923138510891e+01 8.436022037004710372e-02
5.937550040032026288e+01 8.458289258981877001e-02
5.995196156925540265e+01 8.466560986217723517e-02
6.052842273819055663e+01 8.460648826753569551e-02
6.110488390712570350e+01 8.440687735652924184e-02
6.168134507606085037e+01 8.407122285725045219e-02
6.225780624499599725e+01 8.360663259742953657e-02
6.283426741393115122e+01 8.302223972228482685e-02
6.341072858286629099e+01 8.232848543717632972e-02
6.398718975180144497e+01 8.153643353398278004e-02
6.456365092073660605e+01 8.065719379429672764e-02
6.514011208967173161e+01 7.970148957475182983e-02
6.571657325860689980e+01 7.867937054513482464e-02
6.629303442754202536e+01 7.760005044975500088e-02
6.686949559647717933e+01 7.647184107572138623e-02
6.744595676541233331e+01 7.530215348428431765e-02
6.802241793434747308e+01 7.409754191111488086e-02
6.859887910328262706e+01 7.286377156500038754e-02
6.917534027221778103e+01 7.160589712674869656e-02
6.975180144115292080e+01 7.032834332343788908e-02
7.032826261008807478e+01 6.903498236769019247e-02
7.090472377902322876e+01 6.772920543119408110e-02
7.148118494795836853e+01 6.641398688666172445e-02
7.205764611689350829e+01 6.509194102473837840e-02
7.263410728582866227e+01 6.376537151717094620e-02
7.321056845476380204e+01 6.243631419474911237e-02
7.378702962369895602e+01 6.110657383751678245e-02
7.436349079263410999e+01 5.977775570285770446e-02
7.493995196156924976e+01 5.845129248838819985e-02
7.551641313050440374e+01 5.712846736896188410e-02
7.609287429943955772e+01 5.581043367750361528e-02
7.666933546837469748e+01 5.449823172774124341e-02
7.724579663730985146e+01 5.319280320868015333e-02
7.782225780624500544e+01 5.189500351846949855e-02
7.839871897518014521e+01 5.060561235026113380e-02
7.897518014411529919e+01 4.932534279476492173e-02
7.955164131305045316e+01 4.805484918311608844e-02
8.012810248198559293e+01 4.679473385868020835e-02
8.070456365092074691e+01 4.554555303684174744e-02
8.128102481985588668e+01 4.430782188688496548e-02
8.185748598879102644e+01 4.308201894912534746e-02
8.243394715772619463e+01 4.186858998286893674e-02
8.301040832666132019e+01 4.066795132602604029e-02
8.358686949559648838e+01 3.948049283484710709e-02
8.416333066453162814e+01 3.830658046186616317e-02
8.473979183346676791e+01 3.714655852142499659e-02
8.531625300240192189e+01 3.600075168482924637e-02
8.589271417133706166e+01 3.486946674101824850e-02
8.646917534027221564e+01 3.375299415342990911e-02
8.704563650920735540e+01 3.265160943934607152e-02
8.762209767814252359e+01 3.156557439429987649e-02
8.819855884707764915e+01 3.049513818095826376e-02
8.877502001601281734e+01 2.944053829922921306e-02
8.935148118494795710e+01 2.840200145206692867e-02
8.992794235388311108e+01 2.737974431949148288e-02
9.050440352281825085e+01 2.637397425170215706e-02
9.108086469175340483e+01 2.538488989071924912e-02
9.165732586068854459e+01 2.441268172879471413e-02
9.223378702962369857e+01 2.345753261075749288e-02
9.281024819855885255e+01 2.251961818658863509e-02
9.338670936749399232e+01 2.159910731970598324e-02
9.396317053642914630e+01 2.069616245580405481e-02
9.453963170536430027e+01 1.981093995647706385e-02
9.511609287429944004e+01 1.894359040137179317e-02
9.569255404323459402e+01 1.809425886215712195e-02
9.626901521216973379e+01 1.726308515123716261e-02
9.684547638110488776e+01 1.645020404777063419e-02
9.742193755004002753e+01 1.565574550329753428e-02
9.799839871897519572e+01 1.487983482899223747e-02
9.857485988791032128e+01 1.412259286635306546e-02
9.915132105684548947e+01 1.338413614293841071e-02
9.972778222578062923e+01 1.266457701457576919e-02
1.003042433947157832e+02 1.196402379533371800e-02
1.008807045636509230e+02 1.128258087639762500e-02
1.014571657325860770e+02 1.062034883487076101e-02
1.020336269015212167e+02 9.977424533432512066e-03
1.026100880704563565e+02 9.353901211665812884e-03
1.031865492393915105e+02 8.749868569806945606e-03
1.037630104083266502e+02 8.165412845578345555e-03
1.043394715772618184e+02 7.600616884710574041e-03
1.049159327461969440e+02 7.055560205693623375e-03
1.054923939151321122e+02 6.530319059246129411e-03
1.060688550840672661e+02 6.024966482947992884e-03
1.066453162530024059e+02 5.539572351435427186e-03
1.072217774219375457e+02 5.074203422514218277e-03
1.077982385908726997e+02 4.628923379528584840e-03
1.083746997598078394e+02 4.203792870271434376e-03
1.089511609287429934e+02 3.798869542717008777e-03
1.095276220976781616e+02 3.414208077800751692e-03
1.101040832666132872e+02 3.049860219491370115e-03
1.106805444355484411e+02 2.705874802329207018e-03
1.112570056044835951e+02 2.382297776633412328e-03
1.118334667734187349e+02 2.079172231525905010e-03
1.124099279423538889e+02 1.796538415931467087e-03
1.129863891112890286e+02 1.534433757678097757e-03
1.135628502802241826e+02 1.292892880829177088e-03
1.141393114491593224e+02 1.071947621344352449e-03
1.147157726180944906e+02 8.716270411727568626e-04
1.152922337870296303e+02 6.919574408671809668e-04
1.158686949559647701e+02 5.329623707923215404e-04
1.164451561248999099e+02 3.946626409943343222e-04
1.170216172938350780e+02 2.770763297965940205e-04
1.175980784627702178e+02 1.802187911707727505e-04
1.181745396317053718e+02 1.041026609264567390e-04
1.187510008006405258e+02 4.873786175480670536e-05
1.193274619695756655e+02 1.413160716366102047e-05
1.199039231385108053e+02 2.884043183419087750e-07
1.204803843074459593e+02 7.210055810574591799e-06
1.210568454763811133e+02 3.489566036359571891e-05
1.216333066453162672e+02 8.334161248160003809e-05
1.222097678142514070e+02 1.525416010323931684e-04
1.227862289831865326e+02 2.424866067687074175e-04
1.233626901521217007e+02 3.531648987595863891e-04
1.239391513210568547e+02 4.845620297177228165e-04
1.245156124899919945e+02 6.366608301962659467e-04
1.250920736589271627e+02 8.094414016166808206e-04
1.256685348278623024e+02 1.002881108087206024e-03
1.262449959967974280e+02 1.216954566962433941e-03
1.268214571657325820e+02 1.451633638088715029e-03
1.273979183346677502e+02 1.706887411667868445e-03
1.279743795036028899e+02 1.982682194664981551e-03
1.285508406725380439e+02 2.278981495682303599e-03
1.291273018414732121e+02 2.595746008192274454e-03
1.297037630104083235e+02 2.932933592042163105e-03
1.302802241793434632e+02 3.290499253102183858e-03
1.308566853482786314e+02 3.668395120926560074e-03
1.314331465172137996e+02 4.066570424298757841e-03
1.320096076861489394e+02 4.484971464484146381e-03
1.325860688550840507e+02 4.923541586025447815e-03
1.331625300240192189e+02 5.382221144889305815e-03
1.337389911929543587e+02 5.860947473742669257e-03
1.343154523618895269e+02 6.359654844131808031e-03
1.348919135308246666e+02 6.878274425296008673e-03
1.354683746997598348e+02 7.416734239338801729e-03
1.360448358686949462e+02 7.974959112429964858e-03
1.366212970376301143e+02 8.552870621698363540e-03
1.371977582065652541e+02 9.150387037417067118e-03
1.377742193755003939e+02 9.767423260067744153e-03
1.383506805444355621e+02 1.040389075179926764e-02
1.389271417133707018e+02 1.105969746176108971e-02
1.395036028823058416e+02 1.173474774473230210e-02
1.400800640512409814e+02 1.242894227239607283e-02
1.406565252201761496e+02 1.314217793654711731e-02
1.412329863891112893e+02 1.387434774343625568e-02
1.418094475580464575e+02 1.462534069835876201e-02
1.423859087269815973e+02 1.539504167950545011e-02
1.429623698959167371e+02 1.618333129996659195e-02
1.435388310648518768e+02 1.699008575665450840e-02
1.441152922337870166e+02 1.781517666477180212e-02
1.446917534027221848e+02 1.865847087626505349e-02
1.452682145716573245e+02 1.951983028054229963e-02
1.458446757405924927e+02 2.039911158548489770e-02
1.464211369095276041e+02 2.129616607657735389e-02
1.469975980784627723e+02 2.221083935165778928e-02
1.475740592473979120e+02 2.314297102850813859e-02
1.481505204163330518e+02 2.409239442211225796e-02
1.487269815852682200e+02 2.505893618800015057e-02
1.493034427542033598e+02 2.604241592761905727e-02
1.498799039231384995e+02 2.704264575109456906e-02
1.504563650920736393e+02 2.805942979213460822e-02
1.510328262610088075e+02 2.909256366905598259e-02
1.516092874299439472e+02 3.014183388508057462e-02
1.521857485988791154e+02 3.120701716003042650e-02
1.527622097678142268e+02 3.228787968440817446e-02
1.533386709367493950e+02 3.338417628549506661e-02
1.539151321056845347e+02 3.449564949351455190e-02
1.544915932746197029e+02 3.562202849408045019e-02
1.550680544435548427e+02 3.676302795098447540e-02
1.556445156124900109e+02 3.791834668083771814e-02
1.562209767814251222e+02 3.908766615810224665e-02
1.567974379503602904e+02 4.027064882553452185e-02
1.573738991192954302e+02 4.146693618090398908e-02
1.579503602882305984e+02 4.267614660593505721e-02
1.585268214571657381e+02 4.389787289760399558e-02
1.591032826261009063e+02 4.513167945498985228e-02
1.596797437950360177e+02 4.637709906668133208e-02
1.602562049639711859e+02 4.763362923392158721e-02
1.608326661329063256e+02 4.890072795303911785e-02
1.614091273018414938e+02 5.017780886679203134e-02
1.619855884707766336e+02 5.146423567767220708e-02
1.625620496397117734e+02 5.275931569645692792e-02
1.631385108086469131e+02 5.406229237575530672e-02
1.637149719775820529e+02 5.537233665035016378e-02
1.642914331465172211e+02 5.668853687302145145e-02
1.648678943154523893e+02 5.800988709557133166e-02
1.654443554843875290e+02 5.933527339920049298e-02
1.660208166533226404e+02 6.066345792574544954e-02
1.665972778222578086e+02 6.199306020141233387e-02
1.671737389911929768e+02 6.332253527823408779e-02
1.677502001601281165e+02 6.465014814753120009e-02
1.683266613290632563e+02 6.597394380854409990e-02
1.689031224979983961e+02 6.729171231231488581e-02
1.694795836669335358e+02 6.860094806011203528e-02
1.700560448358687040e+02 6.989880264090685136e-02
1.706325060048038438e+02 7.118203058159272567e-02
1.712089671737389835e+02 7.244692761551183025e-02
1.717854283426741233e+02 7.368926153704835613e-02
1.723618895116093199e+02 7.490419652821098118e-02
1.729383506805444313e+02 7.608621318728604754e-02
1.735148118494795710e+02 7.722902857183876202e-02
1.740912730184147108e+02 7.832552361652141137e-02
1.746677341873499074e+02 7.936768947191333301e-02
1.752441953562850472e+02 8.034660959640968492e-02
1.758206565252201869e+02 8.125250030820291292e-02
1.763971176941552983e+02 8.207483761293821178e-02
1.769735788630904949e+02 8.280259990132869674e-02
1.775500400320256347e+02 8.342465075994558166e-02
1.781265012009607744e+02 8.393026949019616323e-02
1.787029623698959142e+02 8.430980675952490233e-02
1.792794235388310824e+02 8.455540233962803576e-02
1.798558847077662222e+02 8.466166251500931161e-02
1.804323458767013619e+02 8.462617440461440987e-02
1.810088070456365017e+02 8.444974930158213877e-02
1.815852682145716699e+02 8.413633993305812131e-02
1.821617293835068097e+02 8.369265065579081786e-02
1.827381905524419778e+02 8.312752622624036691e-02
1.833146517213770892e+02 8.245123948079664811e-02
1.838911128903122290e+02 8.167479408264501084e-02
1.844675740592473971e+02 8.080932623581106589e-02
1.850440352281825369e+02 7.986564739891197084e-02
1.856204963971177051e+02 7.885393382901051407e-02
1.861969575660528164e+02 7.778354540188532618e-02
1.867734187349879846e+02 7.666294562767023146e-02
1.873498799039231244e+02 7.549969352801100264e-02
1.879263410728582926e+02 7.430048188884016969e-02
1.885028022417934608e+02 7.307120213276711851e-02
1.890792634107286005e+02 7.181702174258704219e-02
1.896557245796637119e+02 7.054246492980399685e-02
1.902321857485988801e+02 6.925149084591060433e-02
1.908086469175340198e+02 6.794756617191105574e-02
1.913851080864691880e+02 6.663373060625905897e-02
1.919615692554043278e+02 6.531265482840289960e-02
1.925380304243394676e+02 6.398669113693265798e-02
1.931144915932746073e+02 6.265791729523055575e-02
1.936909527622097755e+02 6.132817426911565950e-02
1.942674139311449153e+02 5.999909858230561416e-02
1.948438751000800551e+02 5.867214999400015285e-02
1.954203362690151948e+02 5.734863514869725787e-02
1.959967974379503914e+02 5.602972777988375619e-02
1.965732586068855028e+02 5.471648597749463605e-02
1.971497197758206426e+02 5.340986695996566974e-02
1.977261809447557823e+02 5.211073972843618257e-02
1.983026421136909789e+02 5.081989592434811576e-02
1.988791032826261187e+02 4.953805916266466880e-02
1.994555644515612585e+02 4.826589307070759671e-02
2.000320256204963698e+02 4.700400822669411477e-02
2.006084867894315664e+02 4.575296816159283436e-02
2.011849479583667062e+02 4.451329456227631071e-02
2.017614091273018460e+02 4.328547179237143827e-02
2.023378702962369857e+02 4.206995082909829181e-02
2.029143314651721539e+02 4.086715269921618182e-02
2.034907926341072937e+02 3.967747148444566302e-02
2.040672538030424334e+02 3.850127695606409689e-02
2.046437149719775732e+02 3.733891688939910275e-02
2.052201761409127130e+02 3.619071910139971815e-02
2.057966373098478812e+02 3.505699324812756867e-02
2.063730984787830209e+02 3.393803241365293127e-02
2.069495596477181607e+02 3.283411451732745623e-02
2.075260208166533005e+02 3.174550356258614564e-02
2.081024819855884687e+02 3.067245074718689263e-02
2.086789431545236368e+02 2.961519545205476556e-02
2.092554043234587766e+02 2.857396612354754645e-02
2.098318654923938880e+02 2.754898106198187466e-02
2.104083266613290562e+02 2.654044912753335955e-02
2.109847878302642243e+02 2.554857037319515495e-02
2.115612489991993641e+02 2.457353661319614663e-02
2.121377101681345323e+02 2.361553193423573949e-02
2.127141713370696721e+02 2.267473315594891251e-02
2.132906325060048118e+02 2.175131024622439097e-02
2.138670936749399516e+02 2.084542669630674167e-02
2.144435548438750914e+02 1.995723986001711470e-02
2.150200160128102596e+02 1.908690126091095243e-02
2.155964771817453993e+02 1.823455687073431003e-02
2.161729383506805391e+02 1.740034736215485475e-02
2.167493995196156789e+02 1.658440833840288051e-02
2.173258606885508470e+02 1.578687054214493457e-02
2.179023218574859868e+02 1.500786004566945914e-02
2.184787830264211266e+02 1.424749842422095951e-02
2.190552441953563232e+02 1.350590291412274470e-02
2.196317053642914630e+02 1.278318655714991148e-02
2.202081665332265743e+02 1.207945833245685496e-02
2.207846277021617141e+02 1.139482327722488031e-02
2.213610888710968823e+02 1.072938259708206693e-02
2.219375500400320504e+02 1.008323376722087585e-02
2.225140112089671902e+02 9.456470625061736551e-03
2.230904723779023016e+02 8.849183455216756700e-03
2.236669335468374697e+02 8.261459067433916600e-03
2.242433947157726379e+02 7.693380868129606927e-03
2.248198558847077777e+02 7.145028926066507649e-03
2.253963170536429175e+02 6.616480032672704924e-03
2.259727782225780572e+02 6.107807757450654969e-03
2.265492393915132254e+02 5.619082498885336757e-03
2.271257005604483652e+02 5.150371531214241808e-03
2.277021617293835050e+02 4.701739047399842650e-03
2.282786228983186447e+02 4.273246198597978850e-03
2.288550840672537845e+02 3.864951130396476319e-03
2.294315452361889811e+02 3.476909016080823121e-03
