Theta (degrees)	Normalized Energy
0.000000000000000000e+00 9.992569629462008107e-01
3.603603603603603434e-01 9.992570285744735159e-01
7.207207207207206867e-01 9.992572254364643358e-01
1.081081081081080919e+00 9.992575534636987111e-01
1.441441441441441373e+00 9.992580125420761350e-01
1.801801801801801606e+00 9.992586025119070126e-01
2.162162162162161838e+00 9.992593231679676169e-01
2.522522522522522070e+00 9.992601742595597081e-01
2.882882882882882747e+00 9.992611554905985738e-01
3.243243243243243423e+00 9.992622665197030685e-01
3.603603603603603212e+00 9.992635069603096332e-01
3.963963963963963888e+00 9.992648763807958634e-01
4.324324324324323676e+00 9.992663743046197311e-01
4.684684684684683909e+00 9.992680002104739057e-01
5.045045045045044141e+00 9.992697535324555069e-01
5.405405405405405261e+00 9.992716336602477378e-01
5.765765765765765494e+00 9.992736399393180591e-01
6.126126126126124838e+00 9.992757716711312410e-01
6.486486486486486847e+00 9.992780281133745168e-01
6.846846846846846191e+00 9.992804084801991671e-01
7.207207207207206423e+00 9.992829119424750939e-01
7.567567567567566655e+00 9.992855376280618263e-01
7.927927927927927776e+00 9.992882846220887405e-01
8.288288288288287120e+00 9.992911519672555976e-01
8.648648648648647352e+00 9.992941386641421841e-01
9.009009009009007585e+00 9.992972436715362727e-01
9.369369369369367817e+00 9.993004659067702411e-01
9.729729729729729826e+00 9.993038042460775650e-01
1.009009009009008828e+01 9.993072575249546396e-01
1.045045045045044851e+01 9.993108245385488031e-01
1.081081081081081052e+01 9.993145040420444714e-01
1.117117117117117076e+01 9.993182947510790282e-01
1.153153153153153099e+01 9.993221953421567161e-01
1.189189189189189122e+01 9.993262044530871746e-01
1.225225225225224968e+01 9.993303206834318608e-01
1.261261261261261168e+01 9.993345425949629046e-01
1.297297297297297369e+01 9.993388687121415037e-01
1.333333333333333215e+01 9.993432975225989834e-01
1.369369369369369238e+01 9.993478274776379511e-01
1.405405405405405439e+01 9.993524569927438872e-01
1.441441441441441285e+01 9.993571844481102806e-01
1.477477477477477485e+01 9.993620081891727569e-01
1.513513513513513331e+01 9.993669265271627467e-01
1.549549549549549354e+01 9.993719377396601544e-01
1.585585585585585555e+01 9.993770400711740054e-01
1.621621621621621401e+01 9.993822317337229810e-01
1.657657657657657424e+01 9.993875109074309426e-01
1.693693693693693447e+01 9.993928757411375541e-01
1.729729729729729470e+01 9.993983243530129013e-01
1.765765765765765849e+01 9.994038548311940939e-01
1.801801801801801517e+01 9.994094652344183149e-01
1.837837837837837540e+01 9.994151535926817376e-01
1.873873873873873563e+01 9.994209179078963334e-01
1.909909909909909587e+01 9.994267561545659984e-01
1.945945945945945965e+01 9.994326662804697836e-01
1.981981981981981633e+01 9.994386462073558963e-01
2.018018018018017656e+01 9.994446938316396967e-01
2.054054054054054035e+01 9.994508070251237886e-01
2.090090090090089703e+01 9.994569836357161119e-01
2.126126126126126081e+01 9.994632214881613574e-01
2.162162162162162105e+01 9.994695183847835951e-01
2.198198198198198128e+01 9.994758721062342310e-01
2.234234234234234151e+01 9.994822804122527327e-01
2.270270270270269819e+01 9.994887410424284635e-01
2.306306306306306197e+01 9.994952517169807260e-01
2.342342342342342221e+01 9.995018101375380271e-01
2.378378378378378244e+01 9.995084139879286678e-01
2.414414414414414622e+01 9.995150609349807702e-01
2.450450450450449935e+01 9.995217486293268561e-01
2.486486486486486314e+01 9.995284747062125330e-01
2.522522522522522337e+01 9.995352367863205023e-01
2.558558558558558360e+01 9.995420324765910136e-01
2.594594594594594739e+01 9.995488593710560865e-01
2.630630630630630762e+01 9.995557150516781730e-01
2.666666666666666430e+01 9.995625970891881540e-01
2.702702702702702453e+01 9.995695030439395445e-01
2.738738738738738476e+01 9.995764304667574818e-01
2.774774774774774855e+01 9.995833768998003688e-01
2.810810810810810878e+01 9.995903398774205195e-01
2.846846846846846546e+01 9.995973169270316872e-01
2.882882882882882569e+01 9.996043055699823654e-01
2.918918918918918592e+01 9.996113033224273137e-01
2.954954954954954971e+01 9.996183076962077418e-01
2.990990990990990994e+01 9.996253161997311620e-01
3.027027027027026662e+01 9.996323263388575686e-01
3.063063063063063041e+01 9.996393356177825096e-01
3.099099099099098709e+01 9.996463415399298169e-01
3.135135135135135087e+01 9.996533416088366764e-01
3.171171171171171110e+01 9.996603333290502436e-01
3.207207207207207489e+01 9.996673142070190421e-01
3.243243243243242802e+01 9.996742817519845836e-01
3.279279279279278825e+01 9.996812334768786501e-01
3.315315315315314848e+01 9.996881668992178005e-01
3.351351351351351582e+01 9.996950795419952129e-01
3.387387387387386894e+01 9.997019689345773008e-01
3.423423423423423628e+01 9.997088326135953329e-01
3.459459459459458941e+01 9.997156681238387188e-01
3.495495495495494964e+01 9.997224730191434094e-01
3.531531531531531698e+01 9.997292448632840722e-01
3.567567567567567721e+01 9.997359812308557192e-01
3.603603603603603034e+01 9.997426797081642169e-01
3.639639639639639768e+01 9.997493378941014752e-01
3.675675675675675080e+01 9.997559534010270754e-01
3.711711711711711814e+01 9.997625238556395733e-01
3.747747747747747127e+01 9.997690468998542412e-01
3.783783783783783861e+01 9.997755201916576073e-01
3.819819819819819173e+01 9.997819414059813115e-01
3.855855855855855197e+01 9.997883082355519813e-01
3.891891891891891930e+01 9.997946183917443275e-01
3.927927927927927954e+01 9.998008696054285771e-01
3.963963963963963266e+01 9.998070596278080258e-01
4.000000000000000000e+01 9.998131862312563678e-01
4.036036036036035313e+01 9.998192472101410377e-01
4.072072072072072046e+01 9.998252403816441092e-01
4.108108108108108070e+01 9.998311635865788638e-01
4.144144144144143382e+01 9.998370146901897071e-01
4.180180180180179406e+01 9.998427915829523061e-01
4.216216216216216139e+01 9.998484921813621806e-01
4.252252252252252163e+01 9.998541144287131921e-01
4.288288288288288186e+01 9.998596562958713685e-01
4.324324324324324209e+01 9.998651157820332980e-01
4.360360360360360232e+01 9.998704909154800813e-01
4.396396396396396256e+01 9.998757797543204040e-01
4.432432432432431568e+01 9.998809803872192870e-01
4.468468468468468302e+01 9.998860909341232839e-01
4.504504504504503615e+01 9.998911095469663612e-01
4.540540540540539638e+01 9.998960344103706710e-01
4.576576576576576372e+01 9.999008637423363322e-01
4.612612612612612395e+01 9.999055957949112283e-01
4.648648648648648418e+01 9.999102288548605832e-01
4.684684684684684441e+01 9.999147612443125555e-01
4.720720720720720465e+01 9.999191913214001692e-01
4.756756756756756488e+01 9.999235174808834836e-01
4.792792792792792511e+01 9.999277381547641008e-01
4.828828828828829245e+01 9.999318518128790245e-01
4.864864864864863847e+01 9.999358569634895222e-01
4.900900900900899870e+01 9.999397521538493372e-01
4.936936936936936604e+01 9.999435359707579130e-01
4.972972972972972627e+01 9.999472070411067337e-01
5.009009009009008651e+01 9.999507640324002411e-01
5.045045045045044674e+01 9.999542056532696455e-01
5.081081081081080697e+01 9.999575306539693065e-01
5.117117117117116720e+01 9.999607378268526858e-01
5.153153153153152743e+01 9.999638260068425266e-01
5.189189189189189477e+01 9.999667940718728332e-01
5.225225225225224079e+01 9.999696409433251887e-01
5.261261261261261524e+01 9.999723655864435345e-01
5.297297297297296836e+01 9.999749670107309640e-01
5.333333333333332860e+01 9.999774442703329713e-01
5.369369369369368883e+01 9.999797964644041581e-01
5.405405405405404906e+01 9.999820227374532911e-01
5.441441441441440929e+01 9.999841222796750362e-01
5.477477477477476953e+01 9.999860943272638192e-01
5.513513513513512976e+01 9.999879381627072572e-01
5.549549549549549710e+01 9.999896531150654910e-01
5.585585585585584312e+01 9.999912385602305331e-01
5.621621621621621756e+01 9.999926939211670751e-01
5.657657657657657069e+01 9.999940186681371967e-01
5.693693693693693092e+01 9.999952123189044251e-01
5.729729729729729115e+01 9.999962744389210290e-01
5.765765765765765138e+01 9.999972046414973281e-01
5.801801801801801162e+01 9.999980025879520174e-01
5.837837837837837185e+01 9.999986679877393980e-01
5.873873873873872498e+01 9.999992005985687271e-01
5.909909909909909942e+01 9.999996002264934791e-01
5.945945945945945965e+01 9.999998667259863971e-01
5.981981981981981988e+01 1.000000000000000000e+00
6.018018018018017301e+01 9.999999999999996669e-01
6.054054054054053324e+01 9.999998667259863971e-01
6.090090090090089348e+01 9.999996002264931461e-01
6.126126126126126081e+01 9.999992005985690602e-01
6.162162162162162815e+01 9.999986679877391760e-01
6.198198198198197417e+01 9.999980025879520174e-01
6.234234234234234151e+01 9.999972046414971061e-01
6.270270270270270174e+01 9.999962744389212510e-01
6.306306306306305487e+01 9.999952123189044251e-01
6.342342342342342221e+01 9.999940186681371967e-01
6.378378378378378244e+01 9.999926939211670751e-01
6.414414414414414978e+01 9.999912385602305331e-01
6.450450450450449580e+01 9.999896531150658241e-01
6.486486486486485603e+01 9.999879381627069241e-01
6.522522522522521626e+01 9.999860943272638192e-01
6.558558558558557650e+01 9.999841222796750362e-01
6.594594594594595094e+01 9.999820227374532911e-01
6.630630630630629696e+01 9.999797964644041581e-01
6.666666666666665719e+01 9.999774442703329713e-01
6.702702702702703164e+01 9.999749670107306310e-01
6.738738738738737766e+01 9.999723655864433125e-01
6.774774774774773789e+01 9.999696409433249666e-01
6.810810810810811233e+01 9.999667940718728332e-01
6.846846846846847257e+01 9.999638260068423046e-01
6.882882882882883280e+01 9.999607378268526858e-01
6.918918918918917882e+01 9.999575306539693065e-01
6.954954954954953905e+01 9.999542056532694234e-01
6.990990990990989928e+01 9.999507640324002411e-01
7.027027027027025952e+01 9.999472070411065117e-01
7.063063063063063396e+01 9.999435359707573578e-01
7.099099099099099419e+01 9.999397521538490041e-01
7.135135135135135442e+01 9.999358569634895222e-01
7.171171171171170045e+01 9.999318518128790245e-01
7.207207207207206068e+01 9.999277381547641008e-01
7.243243243243242091e+01 9.999235174808834836e-01
7.279279279279279535e+01 9.999191913213999472e-01
7.315315315315315559e+01 9.999147612443122224e-01
7.351351351351350161e+01 9.999102288548605832e-01
7.387387387387387605e+01 9.999055957949110063e-01
7.423423423423423628e+01 9.999008637423361101e-01
7.459459459459458230e+01 9.998960344103704490e-01
7.495495495495494254e+01 9.998911095469661392e-01
7.531531531531531698e+01 9.998860909341232839e-01
7.567567567567567721e+01 9.998809803872196200e-01
7.603603603603602323e+01 9.998757797543204040e-01
7.639639639639638347e+01 9.998704909154797482e-01
7.675675675675674370e+01 9.998651157820332980e-01
7.711711711711710393e+01 9.998596562958713685e-01
7.747747747747747837e+01 9.998541144287131921e-01
7.783783783783783861e+01 9.998484921813618476e-01
7.819819819819819884e+01 9.998427915829523061e-01
7.855855855855855907e+01 9.998370146901891520e-01
7.891891891891890509e+01 9.998311635865788638e-01
7.927927927927926532e+01 9.998252403816437761e-01
7.963963963963963977e+01 9.998192472101404826e-01
8.000000000000000000e+01 9.998131862312563678e-01
8.036036036036036023e+01 9.998070596278080258e-01
8.072072072072070625e+01 9.998008696054282440e-01
8.108108108108108070e+01 9.997946183917439944e-01
8.144144144144144093e+01 9.997883082355519813e-01
8.180180180180180116e+01 9.997819414059813115e-01
8.216216216216216139e+01 9.997755201916576073e-01
8.252252252252252163e+01 9.997690468998542412e-01
8.288288288288286765e+01 9.997625238556393512e-01
8.324324324324324209e+01 9.997559534010268534e-01
8.360360360360358811e+01 9.997493378941014752e-01
8.396396396396394834e+01 9.997426797081642169e-01
8.432432432432432279e+01 9.997359812308553861e-01
8.468468468468468302e+01 9.997292448632837392e-01
8.504504504504504325e+01 9.997224730191430764e-01
8.540540540540538927e+01 9.997156681238381637e-01
8.576576576576576372e+01 9.997088326135953329e-01
8.612612612612610974e+01 9.997019689345769677e-01
8.648648648648648418e+01 9.996950795419948799e-01
8.684684684684685863e+01 9.996881668992174674e-01
8.720720720720720465e+01 9.996812334768786501e-01
8.756756756756755067e+01 9.996742817519845836e-01
8.792792792792792511e+01 9.996673142070190421e-01
8.828828828828828534e+01 9.996603333290500215e-01
8.864864864864863137e+01 9.996533416088364543e-01
8.900900900900900581e+01 9.996463415399295949e-01
8.936936936936936604e+01 9.996393356177825096e-01
8.972972972972972627e+01 9.996323263388575686e-01
9.009009009009007229e+01 9.996253161997313841e-01
9.045045045045044674e+01 9.996183076962074088e-01
9.081081081081079276e+01 9.996113033224273137e-01
9.117117117117116720e+01 9.996043055699823654e-01
9.153153153153152743e+01 9.995973169270313541e-01
9.189189189189188767e+01 9.995903398774199644e-01
9.225225225225224790e+01 9.995833768998003688e-01
9.261261261261259392e+01 9.995764304667578148e-01
9.297297297297296836e+01 9.995695030439393225e-01
9.333333333333331439e+01 9.995625970891884871e-01
9.369369369369368883e+01 9.995557150516781730e-01
9.405405405405406327e+01 9.995488593710558645e-01
9.441441441441440929e+01 9.995420324765906805e-01
9.477477477477476953e+01 9.995352367863205023e-01
9.513513513513512976e+01 9.995284747062125330e-01
9.549549549549548999e+01 9.995217486293266340e-01
9.585585585585585022e+01 9.995150609349807702e-01
9.621621621621621046e+01 9.995084139879284457e-01
9.657657657657658490e+01 9.995018101375374719e-01
9.693693693693693092e+01 9.994952517169800599e-01
9.729729729729727694e+01 9.994887410424281304e-01
9.765765765765765138e+01 9.994822804122527327e-01
9.801801801801799741e+01 9.994758721062342310e-01
9.837837837837837185e+01 9.994695183847835951e-01
9.873873873873873208e+01 9.994632214881613574e-01
9.909909909909909231e+01 9.994569836357158898e-01
9.945945945945945255e+01 9.994508070251232335e-01
9.981981981981979857e+01 9.994446938316396967e-01
1.001801801801801730e+02 9.994386462073552302e-01
1.005405405405405475e+02 9.994326662804694505e-01
1.009009009009008935e+02 9.994267561545659984e-01
1.012612612612612679e+02 9.994209179078961114e-01
1.016216216216216139e+02 9.994151535926814045e-01
1.019819819819819742e+02 9.994094652344183149e-01
1.023423423423423344e+02 9.994038548311937609e-01
1.027027027027027088e+02 9.993983243530129013e-01
1.030630630630630549e+02 9.993928757411369990e-01
1.034234234234234151e+02 9.993875109074309426e-01
1.037837837837837895e+02 9.993822317337226480e-01
1.041441441441441356e+02 9.993770400711736723e-01
1.045045045045044816e+02 9.993719377396601544e-01
1.048648648648648560e+02 9.993669265271624136e-01
1.052252252252252305e+02 9.993620081891727569e-01
1.055855855855855765e+02 9.993571844481099475e-01
1.059459459459459367e+02 9.993524569927433321e-01
1.063063063063062970e+02 9.993478274776379511e-01
1.066666666666666572e+02 9.993432975225989834e-01
1.070270270270270032e+02 9.993388687121415037e-01
1.073873873873873777e+02 9.993345425949629046e-01
1.077477477477477521e+02 9.993303206834311947e-01
1.081081081081080981e+02 9.993262044530871746e-01
1.084684684684684726e+02 9.993221953421563830e-01
1.088288288288288186e+02 9.993182947510790282e-01
1.091891891891891788e+02 9.993145040420444714e-01
1.095495495495495391e+02 9.993108245385482480e-01
1.099099099099099135e+02 9.993072575249543066e-01
1.102702702702702595e+02 9.993038042460770098e-01
1.106306306306306197e+02 9.993004659067702411e-01
1.109909909909909942e+02 9.992972436715360507e-01
1.113513513513513402e+02 9.992941386641421841e-01
1.117117117117116862e+02 9.992911519672552645e-01
1.120720720720720607e+02 9.992882846220884074e-01
1.124324324324324351e+02 9.992855376280618263e-01
1.127927927927927811e+02 9.992829119424750939e-01
1.131531531531531414e+02 9.992804084801991671e-01
1.135135135135135016e+02 9.992780281133741838e-01
1.138738738738738618e+02 9.992757716711312410e-01
1.142342342342342363e+02 9.992736399393180591e-01
1.145945945945945823e+02 9.992716336602474048e-01
1.149549549549549567e+02 9.992697535324555069e-01
1.153153153153153028e+02 9.992680002104739057e-01
1.156756756756756630e+02 9.992663743046197311e-01
1.160360360360360232e+02 9.992648763807955303e-01
1.163963963963963835e+02 9.992635069603096332e-01
1.167567567567567437e+02 9.992622665197030685e-01
1.171171171171171039e+02 9.992611554905983517e-01
1.174774774774774500e+02 9.992601742595600411e-01
1.178378378378378386e+02 9.992593231679676169e-01
1.181981981981981988e+02 9.992586025119073456e-01
1.185585585585585591e+02 9.992580125420755799e-01
1.189189189189189193e+02 9.992575534636981560e-01
1.192792792792792653e+02 9.992572254364643358e-01
1.196396396396396398e+02 9.992570285744735159e-01
1.199999999999999858e+02 9.992569629462004777e-01
1.203603603603603460e+02 9.992570285744735159e-01
1.207207207207207063e+02 9.992572254364643358e-01
1.210810810810810665e+02 9.992575534636987111e-01
1.214414414414414125e+02 9.992580125420755799e-01
1.218018018018017870e+02 9.992586025119073456e-01
1.221621621621621330e+02 9.992593231679676169e-01
1.225225225225225216e+02 9.992601742595597081e-01
1.228828828828828819e+02 9.992611554905983517e-01
1.232432432432432563e+02 9.992622665197030685e-01
1.236036036036036023e+02 9.992635069603096332e-01
1.239639639639639483e+02 9.992648763807958634e-01
1.243243243243243228e+02 9.992663743046197311e-01
1.246846846846846830e+02 9.992680002104739057e-01
1.250450450450450290e+02 9.992697535324552849e-01
1.254054054054054035e+02 9.992716336602474048e-01
1.257657657657657495e+02 9.992736399393180591e-01
1.261261261261261097e+02 9.992757716711312410e-01
1.264864864864864700e+02 9.992780281133738507e-01
1.268468468468468444e+02 9.992804084801991671e-01
1.272072072072072189e+02 9.992829119424750939e-01
1.275675675675675649e+02 9.992855376280618263e-01
1.279279279279279251e+02 9.992882846220881854e-01
1.282882882882882996e+02 9.992911519672552645e-01
1.286486486486486456e+02 9.992941386641421841e-01
1.290090090090089916e+02 9.992972436715362727e-01
1.293693693693693660e+02 9.993004659067702411e-01
1.297297297297297121e+02 9.993038042460770098e-01
1.300900900900900581e+02 9.993072575249546396e-01
1.304504504504504325e+02 9.993108245385482480e-01
1.308108108108107785e+02 9.993145040420444714e-01
1.311711711711711530e+02 9.993182947510790282e-01
1.315315315315315274e+02 9.993221953421567161e-01
1.318918918918919019e+02 9.993262044530871746e-01
1.322522522522522479e+02 9.993303206834311947e-01
1.326126126126125939e+02 9.993345425949629046e-01
1.329729729729729684e+02 9.993388687121415037e-01
1.333333333333333144e+02 9.993432975225992054e-01
1.336936936936936888e+02 9.993478274776379511e-01
1.340540540540540633e+02 9.993524569927433321e-01
1.344144144144144093e+02 9.993571844481105027e-01
1.347747747747747553e+02 9.993620081891727569e-01
1.351351351351351298e+02 9.993669265271624136e-01
1.354954954954954758e+02 9.993719377396601544e-01
1.358558558558558218e+02 9.993770400711740054e-01
1.362162162162162247e+02 9.993822317337226480e-01
1.365765765765765707e+02 9.993875109074309426e-01
1.369369369369369451e+02 9.993928757411375541e-01
1.372972972972972912e+02 9.993983243530129013e-01
1.376576576576576656e+02 9.994038548311940939e-01
1.380180180180180116e+02 9.994094652344185370e-01
1.383783783783783576e+02 9.994151535926817376e-01
1.387387387387387321e+02 9.994209179078961114e-01
1.390990990990990781e+02 9.994267561545659984e-01
1.394594594594594525e+02 9.994326662804697836e-01
1.398198198198197986e+02 9.994386462073555633e-01
1.401801801801801730e+02 9.994446938316400297e-01
1.405405405405405190e+02 9.994508070251237886e-01
1.409009009009008935e+02 9.994569836357161119e-01
1.412612612612612679e+02 9.994632214881613574e-01
1.416216216216216139e+02 9.994695183847835951e-01
1.419819819819819884e+02 9.994758721062347862e-01
1.423423423423423344e+02 9.994822804122527327e-01
1.427027027027027088e+02 9.994887410424284635e-01
1.430630630630630549e+02 9.994952517169803929e-01
1.434234234234234009e+02 9.995018101375378050e-01
