Theta (degrees)	Normalized Energy
0.000000000000000000e+00 0.000000000000000000e+00
7.203601800900449881e-01 3.529057137924614270e-04
1.440720360180089976e+00 1.411132379228734624e-03
2.161080540270135408e+00 3.173209202217840749e-03
2.881440720360179952e+00 5.636686967407555232e-03
3.601800900450225384e+00 8.798141197837618457e-03
4.322161080540270817e+00 1.265317657970760519e-02
5.042521260630314472e+00 1.719643263580902109e-02
5.762881440720359905e+00 2.242159065898026785e-02
6.483241620810405337e+00 2.832138188560897468e-02
7.203601800900450769e+00 3.488759691035670657e-02
7.923961980990495313e+00 4.211109633231416294e-02
8.644322161080541633e+00 4.998182262240328383e-02
9.364682341170585289e+00 5.848881319792587075e-02
1.008504252126062894e+01 6.762021469642529037e-02
1.080540270135067615e+01 7.736329844611938844e-02
1.152576288144071981e+01 8.770447709099535305e-02
1.224612306153076524e+01 9.862932238584191935e-02
1.296648324162081067e+01 1.101225841236178615e-01
1.368684342171085433e+01 1.221682101904567469e-01
1.440720360180090154e+01 1.347493677181489102e-01
1.512756378189094697e+01 1.478484653196084908e-01
1.584792396198099063e+01 1.614471763881335509e-01
1.656828414207103606e+01 1.755264634263832557e-01
1.728864432216108327e+01 1.900666033917553788e-01
1.800900450225112337e+01 2.050472140260462262e-01
1.872936468234117058e+01 2.204472811431512358e-01
1.944972486243121779e+01 2.362451868430799629e-01
2.017008504252125789e+01 2.524187386260435262e-01
2.089044522261130510e+01 2.689451993717550393e-01
2.161080540270135231e+01 2.858013181490836607e-01
2.233116558279139241e+01 3.029633618282542851e-01
2.305152576288143962e+01 3.204071474403647479e-01
2.377188594297148683e+01 3.381080752795220801e-01
2.449224612306153048e+01 3.560411626669118257e-01
2.521260630315157769e+01 3.741810783709246246e-01
2.593296648324162135e+01 3.925021776179316579e-01
2.665332666333166500e+01 4.109785376619814468e-01
2.737368684342170866e+01 4.295839938675933278e-01
2.809404702351175587e+01 4.482921762449365022e-01
2.881440720360180308e+01 4.670765464131119704e-01
2.953476738369184673e+01 4.859104349167260861e-01
3.025512756378189394e+01 5.047670788738226610e-01
3.097548774387193760e+01 5.236196598646957190e-01
3.169584792396198125e+01 5.424413420560997290e-01
3.241620810405202491e+01 5.612053104613721199e-01
3.313656828414207212e+01 5.798848093157076278e-01
3.385692846423211932e+01 5.984531804949099199e-01
3.457728864432216653e+01 6.168839019153417036e-01
3.529764882441220664e+01 6.351506258802158689e-01
3.601800900450224674e+01 6.532272172895825513e-01
3.673836918459229395e+01 6.710877916705380031e-01
3.745872936468234116e+01 6.887067529602838301e-01
3.817908954477238836e+01 7.060588309966060461e-01
3.889944972486243557e+01 7.231191186362596612e-01
3.961980990495248278e+01 7.398631084570029826e-01
4.034017008504251578e+01 7.562667289837436968e-01
4.106053026513257009e+01 7.723063803639890201e-01
4.178089044522261020e+01 7.879589694565641844e-01
4.250125062531265741e+01 8.032019442564394263e-01
4.322161080540270461e+01 8.180133276082731664e-01
4.394197098549275182e+01 8.323717501420853093e-01
4.466233116558278482e+01 8.462564823868024000e-01
4.538269134567283203e+01 8.596474660001807155e-01
4.610305152576287924e+01 8.725253440485220002e-01
4.682341170585292645e+01 8.848714903130745491e-01
4.754377188594297365e+01 8.966680375357736210e-01
4.826413206603301376e+01 9.078979045827808569e-01
4.898449224612306097e+01 9.185448224592360766e-01
4.970485242621310817e+01 9.285933591395807429e-01
5.042521260630315538e+01 9.380289431586166238e-01
5.114557278639320259e+01 9.468378859311835649e-01
5.186593296648324269e+01 9.550074027436621371e-01
5.258629314657328280e+01 9.625256324035934563e-01
5.330665332666333001e+01 9.693816554796558238e-01
5.402701350675337721e+01 9.755655111300397531e-01
5.474737368684341732e+01 9.810682124600774712e-01
5.546773386693346453e+01 9.858817603950288389e-01
5.618809404702351173e+01 9.899991560496118614e-01
5.690845422711355894e+01 9.934144115461042146e-01
5.762881440720360615e+01 9.961225592880644797e-01
5.834917458729364625e+01 9.981196596493303597e-01
5.906953476738369346e+01 9.994028070822120746e-01
5.978989494747374067e+01 9.999701346205953634e-01
6.051025512756378788e+01 9.998208167752128395e-01
6.123061530765383509e+01 9.989550708116842204e-01
6.195097548774387519e+01 9.973741564187666997e-01
6.267133566783392240e+01 9.950803737468392196e-01
6.339169584792396250e+01 9.920770598495228798e-01
6.411205602801400971e+01 9.883685835092447247e-01
6.483241620810404982e+01 9.839603384635866590e-01
6.555277638819410413e+01 9.788587350590535197e-01
6.627313656828414423e+01 9.730711903338281621e-01
6.699349674837418434e+01 9.666061165396951926e-01
6.771385692846423865e+01 9.594729081575781304e-01
6.843421710855427875e+01 9.516819273937635604e-01
6.915457728864433307e+01 9.432444882042058110e-01
6.987493746873437317e+01 9.341728388821625151e-01
7.059529764882441327e+01 9.244801432193450186e-01
7.131565782891445338e+01 9.141804602946347336e-01
7.203601800900449348e+01 9.032887229291414188e-01
7.275637818909453358e+01 8.918207148228788350e-01
7.347673836918458790e+01 8.797930464494349012e-01
7.419709854927464221e+01 8.672231297227361857e-01
7.491745872936468231e+01 8.541291514977920052e-01
7.563781890945473663e+01 8.405300459535938185e-01
7.635817908954477673e+01 8.264454658957720579e-01
7.707853926963481683e+01 8.118957530397185041e-01
7.779889944972487115e+01 7.969019073278350573e-01
7.851925962981491125e+01 7.814855553239933306e-01
7.923961980990496556e+01 7.656689177545308311e-01
7.995997998999499146e+01 7.494747762369111665e-01
8.068034017008503156e+01 7.329264392634147196e-01
8.140070035017508587e+01 7.160477074966551392e-01
8.212106053026514019e+01 6.988628384250957781e-01
8.284142071035518029e+01 6.813965104518111549e-01
8.356178089044522039e+01 6.636737864634926209e-01
8.428214107053527471e+01 6.457200769494200188e-01
8.500250125062531481e+01 6.275611027146540399e-01
8.572286143071536912e+01 6.092228572685312038e-01
8.644322161080540923e+01 5.907315689272336634e-01
8.716358179089544933e+01 5.721136627017205933e-01
8.788394197098550364e+01 5.533957220215480755e-01
8.860430215107552954e+01 5.346044503658600178e-01
8.932466233116556964e+01 5.157666328422879642e-01
9.004502251125562395e+01 4.969090977815164845e-01
9.076538269134566406e+01 4.780586784035264492e-01
9.148574287143571837e+01 4.592421746091737700e-01
9.220610305152575847e+01 4.404863149444980808e-01
9.292646323161579858e+01 4.218177188086538187e-01
9.364682341170585289e+01 4.032628589332734048e-01
9.436718359179589299e+01 3.848480242143384467e-01
9.508754377188594731e+01 3.665992829149691268e-01
9.580790395197598741e+01 3.485424463147243634e-01
9.652826413206602751e+01 3.307030328387053908e-01
9.724862431215608183e+01 3.131062327075892493e-01
9.796898449224612193e+01 2.957768731751765356e-01
9.868934467233617625e+01 2.787393843753876443e-01
9.940970485242621635e+01 2.620177658210083305e-01
1.001300650325162565e+02 2.456355536203786438e-01
1.008504252126063108e+02 2.296157884096736157e-01
1.015707853926963509e+02 2.139809840849879186e-01
1.022911455727864052e+02 1.987530973209062357e-01
1.030115057528764453e+02 1.839534979593785979e-01
1.037318659329664854e+02 1.696029402583253964e-01
1.044522261130565397e+02 1.557215350645985152e-01
1.051725862931465656e+02 1.423287229206989801e-01
1.058929464732366057e+02 1.294432481432436222e-01
1.066133066533266600e+02 1.170831338943312955e-01
1.073336668334167001e+02 1.052656582830180654e-01
1.080540270135067544e+02 9.400733150355956858e-02
1.087743871935967945e+02 8.332387404998005398e-02
1.094947473736868346e+02 7.323019601793506750e-02
1.102151075537768889e+02 6.374037751815157804e-02
1.109354677338669291e+02 5.486765021789608704e-02
1.116558279139569834e+02 4.662438003044613866e-02
1.123761880940470235e+02 3.902205097214900276e-02
1.130965482741370636e+02 3.207125018550099904e-02
1.138169084542271179e+02 2.578165416741488164e-02
1.145372686343171580e+02 2.016201619131685260e-02
1.152576288144072123e+02 1.522015495244881562e-02
1.159779889944972524e+02 1.096294443128412177e-02
1.166983491745872925e+02 7.396304993857265829e-03
1.174187093546773184e+02 4.525195736449400680e-03
1.181390695347673869e+02 2.353608076979689639e-03
1.188594297148574128e+02 8.845605970192963602e-04
1.195797898949474813e+02 1.200951489200247167e-04
1.203001500750375072e+02 6.127421826569337093e-05
1.210205102551275758e+02 7.081795553549274881e-04
1.217408704352176017e+02 2.059912068665187800e-03
1.224612306153076702e+02 4.114592984998156205e-03
1.231815907953976961e+02 6.869366275523121693e-03
1.239019509754877504e+02 1.032040233753478420e-02
1.246223111555777905e+02 1.446290294289241662e-02
1.253426713356678448e+02 1.929110743786499257e-02
1.260630315157578707e+02 2.479830019516566370e-02
1.267833916958479250e+02 3.097681930055010829e-02
1.275037518759379651e+02 3.781806648807914395e-02
1.282241120560280194e+02 4.531251829075306353e-02
1.289444722361180595e+02 5.344973841513463858e-02
1.296648324162080996e+02 6.221839131724350019e-02
1.303851925962981397e+02 7.160625697815521662e-02
1.311055527763882083e+02 8.160024684836264530e-02
1.318259129564782484e+02 9.218642097656661039e-02
1.325462731365682885e+02 1.033500062676695197e-01
1.332666333166583286e+02 1.150754158856389792e-01
1.339869934967483687e+02 1.273462697695156298e-01
1.347073536768384088e+02 1.401454162367146705e-01
1.354277138569284773e+02 1.534549546685288757e-01
1.361480740370184890e+02 1.672562592374912116e-01
1.368684342171085575e+02 1.815300036660207617e-01
1.375887943971985976e+02 1.962561869830604933e-01
1.383091545772886661e+02 2.114141602563805733e-01
1.390295147573786778e+02 2.269826542707801820e-01
1.397498749374687463e+02 2.429398081224202754e-01
1.404702351175587864e+02 2.592631986932533716e-01
1.411905952976488265e+02 2.759298709859658305e-01
1.419109554777388666e+02 2.929163692653822815e-01
1.426313156578289068e+02 3.101987689930145176e-01
1.433516758379189469e+02 3.277527095010949187e-01
1.440720360180089870e+02 3.455534273661446942e-01
1.447923961980990555e+02 3.635757904628832415e-01
1.455127563781890672e+02 3.817943326271945326e-01
1.462331165582791357e+02 4.001832889140500282e-01
1.469534767383691758e+02 4.187166313747940904e-01
1.476738369184592443e+02 4.373681053455674150e-01
1.483941970985492844e+02 4.561112661595241868e-01
1.491145572786393245e+02 4.749195162663922831e-01
1.498349174587293646e+02 4.937661426939676246e-01
1.505552776388194047e+02 5.126243547986650828e-01
1.512756378189094733e+02 5.314673222628257809e-01
1.519959979989994849e+02 5.502682132827706463e-01
1.527163581790895535e+02 5.690002328802323817e-01
1.534367183591795936e+02 5.876366613038722653e-01
1.541570785392696337e+02 6.061508924484232397e-01
1.548774387193596738e+02 6.245164722385814215e-01
1.555977988994497423e+02 6.427071369251626809e-01
1.563181590795397540e+02 6.606968512257632709e-01
1.570385192596298225e+02 6.784598462625321957e-01
1.577588794397198626e+02 6.959706572296870952e-01
1.584792396198099311e+02 7.132041607331969235e-01
1.591995997998999428e+02 7.301356117470130247e-01
1.599199599799899829e+02 7.467406801204401479e-01
1.606403201600800514e+02 7.629954865841604983e-01
1.613606803401700631e+02 7.788766381891111257e-01
1.620810405202601316e+02 7.943612631229878263e-01
1.628014007003501717e+02 8.094270448483645852e-01
1.635217608804402403e+02 8.240522554938869426e-01
1.642421210605302804e+02 8.382157884652464697e-01
1.649624812406203205e+02 8.518971901838905403e-01
1.656828414207103606e+02 8.650766909374116853e-01
1.664032016008004291e+02 8.777352347538784905e-01
1.671235617808904408e+02 8.898545082762168157e-01
1.678439219609804809e+02 9.014169685618318439e-01
1.685642821410705494e+02 9.124058697745682789e-01
1.692846423211605611e+02 9.228052887090838485e-01
1.700050025012506296e+02 9.326001491108184549e-01
1.707253626813406697e+02 9.417762447449479213e-01
1.714457228614307382e+02 9.503202611634067321e-01
1.721660830415207499e+02 9.582197961453018387e-01
1.728864432216108185e+02 9.654633787648934096e-01
1.736068034017008586e+02 9.720404870393564156e-01
1.743271635817908987e+02 9.779415641563240502e-01
1.750475237618809388e+02 9.831580332134526312e-01
1.757678839419710073e+02 9.876823104660911179e-01
1.764882441220610190e+02 9.915078170560298609e-01
1.772086043021510591e+02 9.946289891864692478e-01
1.779289644822411276e+02 9.970412867381158728e-01
1.786493246623311393e+02 9.987412002993821813e-01
1.793696848424212078e+02 9.997262566114706317e-01
1.800900450225112479e+02 9.999950223958357087e-01
1.808104052026013164e+02 9.995471065824301782e-01
1.815307653826913281e+02 9.983831609140622065e-01
1.822511255627813966e+02 9.965048789343031732e-01
1.829714857428714367e+02 9.939149933640399892e-01
1.836918459229614768e+02 9.906172718619694617e-01
1.844122061030515169e+02 9.866165111905794705e-01
1.851325662831415286e+02 9.819185297786060529e-01
1.858529264632315972e+02 9.765301587238361947e-01
1.865732866433216373e+02 9.704592312166705481e-01
1.872936468234117058e+02 9.637145704396742341e-01
1.880140070035017175e+02 9.563059759372389834e-01
1.887343671835917860e+02 9.482442085054932912e-01
1.894547273636818261e+02 9.395409736044159077e-01
1.901750875437718946e+02 9.302089033540406060e-01
1.908954477238619063e+02 9.202615371167088831e-01
1.916158079039519748e+02 9.097133007268638494e-01
1.923361680840420433e+02 8.985794843860119840e-01
1.930565282641320550e+02 8.868762192866936900e-01
1.937768884442221236e+02 8.746204529799576077e-01
1.944972486243121637e+02 8.618299235603626984e-01
1.952176088044022322e+02 8.485231326877025193e-01
1.959379689844922439e+02 8.347193175128182485e-01
1.966583291645823124e+02 8.204384215572451122e-01
1.973786893446723525e+02 8.057010645795904535e-01
1.980990495247623926e+02 7.905285115065909807e-01
1.988194097048524327e+02 7.749426404625283649e-01
1.995397698849425012e+02 7.589659099647680929e-01
2.002601300650325129e+02 7.426213253375113510e-01
2.009804902451225814e+02 7.259324043997701370e-01
2.017008504252126215e+02 7.089231424867104003e-01
2.024212106053026332e+02 6.916179768635040137e-01
2.031415707853927017e+02 6.740417505896593164e-01
2.038619309654827418e+02 6.562196758921898798e-01
2.045822911455728104e+02 6.381772971110717396e-01
2.053026513256628220e+02 6.199404532663421730e-01
2.060230115057528906e+02 6.015352403224321076e-01
2.067433716858429307e+02 5.829879731955588396e-01
2.074637318659329708e+02 5.643251475601893663e-01
2.081840920460230109e+02 5.455734015352583510e-01
2.089044522261130794e+02 5.267594772814755411e-01
2.096248124062030911e+02 5.079101825782670332e-01
2.103451725862931312e+02 4.890523524492833007e-01
2.110655327663831997e+02 4.702128108654592964e-01
2.117858929464732114e+02 4.514183326067041646e-01
2.125062531265632799e+02 4.326956053170784577e-01
2.132266133066533200e+02 4.140711918267030445e-01
2.139469734867433885e+02 3.955714927658587343e-01
2.146673336668334002e+02 3.772227095472616698e-01
2.153876938469234688e+02 3.590508077490235928e-01
2.161080540270135089e+02 3.410814809582233265e-01
2.168284142071035490e+02 3.233401151103409421e-01
2.175487743871935891e+02 3.058517533829135382e-01
2.182691345672836007e+02 2.886410616751392544e-01
2.189894947473736693e+02 2.717322947263051125e-01
2.197098549274637094e+02 2.551492629098567333e-01
2.204302151075537779e+02 2.389152997379690169e-01
2.211505752876437896e+02 2.230532301279272711e-01
2.218709354677338581e+02 2.075853394542109820e-01
2.225912956478238982e+02 1.925333434293651780e-01
2.233116558279139667e+02 1.779183588430342522e-01
2.240320160080039784e+02 1.637608751940180796e-01
2.247523761880940469e+02 1.500807272490345956e-01
2.254727363681840586e+02 1.368970685497304385e-01
2.261930965482741271e+02 1.242283459024079301e-01
2.269134567283641672e+02 1.120922748782769846e-01
2.276338169084542358e+02 1.005058163355904699e-01
2.283541770885442475e+02 8.948515401379804335e-02
2.290745372686343160e+02 7.904567319462621477e-02
2.297948974487243561e+02 6.920194046063561644e-02
2.305152576288144246e+02 5.996768458219791514e-02
2.312356178089044363e+02 5.135577853328394254e-02
2.319559779889945048e+02 4.337822266583056530e-02
2.326763381690845733e+02 3.604612904816961727e-02
2.333966983491745850e+02 2.936970699493642728e-02
2.341170585292646251e+02 2.335824978414933334e-02
2.348374187093546368e+02 1.802012259279435827e-02
2.355577788894447622e+02 1.336275164425659509e-02
2.362781390695347739e+02 9.392614590315449818e-03
2.369984992496248140e+02 6.115232127703774598e-03
2.377188594297148256e+02 3.535160861764569725e-03
2.384392196098049226e+02 1.655987413680099548e-03
2.391595797898949627e+02 4.803237963407698042e-04
2.398799399699850028e+02 9.804040836617932528e-06
2.406003001500750145e+02 2.450820861050743873e-04
2.413206603301651114e+02 1.185830940351871371e-03
2.420410205102551515e+02 2.830743097011339214e-03
2.427613806903451632e+02 5.177532225613261894e-03
2.434817408704352033e+02 8.222936120714207861e-03
2.442021010505252150e+02 1.196272091281009621e-02
2.449224612306153404e+02 1.639168653966330616e-02
2.456428214107053520e+02 2.150367346198557225e-02
2.463631815907953921e+02 2.729157064110213429e-02
2.470835417708854038e+02 3.374732473786277998e-02
2.478039019509755008e+02 4.086195056021713068e-02
2.485242621310655409e+02 4.862554272498662011e-02
2.492446223111555810e+02 5.702728853030817474e-02
2.499649824912455927e+02 6.605548203874947455e-02
2.506853426713356896e+02 7.569753933702000337e-02
2.514057028514257297e+02 8.594001498011145934e-02
2.521260630315157414e+02 9.676861958618329651e-02
2.528464232116057815e+02 1.081682385798433399e-01
2.535667833916958500e+02 1.201229520591478861e-01
2.542871435717859185e+02 1.326160557647791671e-01
2.550075037518759302e+02 1.456300831423913977e-01
2.557278639319659703e+02 1.591468284585663695e-01
2.564482241120560388e+02 1.731473709641115633e-01
2.571685842921460790e+02 1.876121000721917009e-01
2.578889444722361191e+02 2.025207415254432763e-01
2.586093046523261592e+02 2.178523845226958133e-01
2.593296648324161993e+02 2.335855097865001950e-01
2.600500250125062394e+02 2.496980185260288809e-01
2.607703851925962795e+02 2.661672622698892376e-01
2.614907453726863196e+02 2.829700735504416254e-01
2.622111055527764165e+02 3.000827973749950472e-01
2.629314657328663998e+02 3.174813234721301503e-01
2.636518259129564967e+02 3.351411192614490164e-01
2.643721860930465368e+02 3.530372635216834087e-01
2.650925462731365769e+02 3.711444806964521725e-01
2.658129064532266170e+02 3.894371758137759598e-01
2.665332666333166571e+02 4.078894699649050493e-01
2.672536268134067541e+02 4.264752363025108295e-01
2.679739869934967373e+02 4.451681365065381368e-01
2.686943471735867774e+02 4.639416576785521107e-01
2.694147073536768175e+02 4.827691496058271192e-01
2.701350675337669145e+02 5.016238623481772407e-01
2.708554277138569546e+02 5.204789841020937002e-01
2.715757878939469947e+02 5.393076792822619758e-01
2.722961480740369780e+02 5.580831267660176787e-01
2.730165082541270749e+02 5.767785582502119590e-01
2.737368684342171150e+02 5.953672966683961620e-01
2.744572286143071551e+02 6.138227946001725277e-01
2.751775887943971952e+02 6.321186726253184007e-01
2.758979489744872922e+02 6.502287575651084506e-01
2.766183091545773323e+02 6.681271205422893988e-01
2.773386693346673155e+02 6.857881148158418982e-01
2.780590295147573556e+02 7.031864133176765064e-01
2.787793896948473957e+02 7.202970458407373933e-01
2.794997498749374927e+02 7.370954358131042161e-01
2.802201100550275328e+02 7.535574366075662445e-01
2.809404702351175729e+02 7.696593673177324346e-01
2.816608304152075561e+02 7.853780479380113588e-01
2.823811905952976531e+02 8.006908339149488851e-01
2.831015507753876932e+02 8.155756499743579413e-01
2.838219109554777333e+02 8.300110231960370344e-01
2.845422711355677734e+02 8.439761152683182832e-01
2.852626313156578135e+02 8.574507538617363034e-01
2.859829914957479104e+02 8.704154630810816418e-01
2.867033516758378937e+02 8.828514929312135662e-01
