Theta (degrees)	Normalized Energy
0.000000000000000000e+00 2.926924134889157814e-01
3.601800900450224940e-01 2.926650850057384567e-01
7.203601800900449881e-01 2.925832591598497845e-01
1.080540270135067704e+00 2.924474098963645852e-01
1.440720360180089976e+00 2.922583112483572165e-01
1.800900450225112692e+00 2.920170146843437675e-01
2.161080540270135408e+00 2.917248195692602186e-01
2.521260630315157236e+00 2.913832385991091956e-01
2.881440720360179952e+00 2.909939602169160922e-01
3.241620810405202668e+00 2.905588099726823526e-01
3.601800900450225384e+00 2.900797125862583092e-01
3.961980990495247656e+00 2.895586561587112362e-01
4.322161080540270817e+00 2.889976596084739557e-01
4.682341170585292645e+00 2.883987440319901174e-01
5.042521260630314472e+00 2.877639083423628175e-01
5.402701350675338077e+00 2.870951092479626099e-01
5.762881440720359905e+00 2.863942454073613031e-01
6.123061530765382621e+00 2.856631454384844226e-01
6.483241620810405337e+00 2.849035593621936369e-01
6.843421710855427165e+00 2.841171530135784273e-01
7.203601800900450769e+00 2.833055049462925301e-01
7.563781890945473485e+00 2.824701053750410251e-01
7.923961980990495313e+00 2.816123567389176019e-01
8.284142071035518029e+00 2.807335755157152057e-01
8.644322161080541633e+00 2.798349949685258742e-01
9.004502251125561685e+00 2.789177685567704734e-01
9.364682341170585289e+00 2.779829737914426557e-01
9.724862431215608893e+00 2.770316163573168788e-01
1.008504252126062894e+01 2.760646343624021948e-01
1.044522261130565255e+01 2.750829026069461780e-01
1.080540270135067615e+01 2.740872367909971130e-01
1.116558279139569620e+01 2.730783976014612979e-01
1.152576288144071981e+01 2.720570946372146692e-01
1.188594297148574341e+01 2.710239901448535105e-01
1.224612306153076524e+01 2.699797025485908830e-01
1.260630315157578885e+01 2.689248097661818826e-01
1.296648324162081067e+01 2.678598523090905403e-01
1.332666333166583250e+01 2.667853361697397063e-01
1.368684342171085433e+01 2.657017355020280802e-01
1.404702351175587793e+01 2.646094951035720677e-01
1.440720360180090154e+01 2.635090327096228924e-01
1.476738369184592337e+01 2.624007411094727016e-01
1.512756378189094697e+01 2.612849900965797945e-01
1.548774387193596880e+01 2.601621282637023302e-01
1.584792396198099063e+01 2.590324846541505188e-01
1.620810405202601245e+01 2.578963702799227931e-01
1.656828414207103606e+01 2.567540795170007439e-01
1.692846423211605966e+01 2.556058913875580707e-01
1.728864432216108327e+01 2.544520707382326163e-01
1.764882441220610332e+01 2.532928693230192541e-01
1.800900450225112337e+01 2.521285267987375955e-01
1.836918459229614697e+01 2.509592716404373536e-01
1.872936468234117058e+01 2.497853219835445560e-01
1.908954477238619418e+01 2.486068863989968625e-01
1.944972486243121779e+01 2.474241646071314304e-01
1.980990495247624139e+01 2.462373481355905613e-01
2.017008504252125789e+01 2.450466209260790118e-01
2.053026513256628505e+01 2.438521598943970692e-01
2.089044522261130510e+01 2.426541354477899370e-01
2.125062531265632870e+01 2.414527119633125829e-01
2.161080540270135231e+01 2.402480482305899001e-01
2.197098549274637591e+01 2.390402978620532470e-01
2.233116558279139241e+01 2.378296096734827669e-01
2.269134567283641601e+01 2.366161280374297626e-01
2.305152576288143962e+01 2.353999932118806815e-01
2.341170585292646322e+01 2.341813416463258690e-01
2.377188594297148683e+01 2.329603062672025715e-01
2.413206603301650688e+01 2.317370167445373663e-01
2.449224612306153048e+01 2.305115997414424189e-01
2.485242621310655409e+01 2.292841791480069447e-01
2.521260630315157769e+01 2.280548763009822566e-01
2.557278639319660130e+01 2.268238101905681869e-01
2.593296648324162135e+01 2.255910976554972025e-01
2.629314657328664140e+01 2.243568535675327380e-01
2.665332666333166500e+01 2.231211910064080650e-01
2.701350675337668861e+01 2.218842214261775858e-01
2.737368684342170866e+01 2.206460548138699795e-01
2.773386693346673226e+01 2.194067998412923270e-01
2.809404702351175587e+01 2.181665640107781357e-01
2.845422711355677947e+01 2.169254537956285256e-01
2.881440720360180308e+01 2.156835747759617561e-01
2.917458729364682313e+01 2.144410317706513802e-01
2.953476738369184673e+01 2.131979289660157206e-01
2.989494747373687034e+01 2.119543700418775600e-01
3.025512756378189394e+01 2.107104582956299543e-01
3.061530765382691754e+01 2.094662967648998897e-01
3.097548774387193760e+01 2.082219883494113022e-01
3.133566783391696120e+01 2.069776359326446769e-01
3.169584792396198125e+01 2.057333425038868346e-01
3.205602801400700486e+01 2.044892112812697338e-01
3.241620810405202491e+01 2.032453458364185950e-01
3.277638819409705206e+01 2.020018502213286049e-01
3.313656828414207212e+01 2.007588290981246471e-01
3.349674837418709217e+01 1.995163878723742457e-01
3.385692846423211932e+01 1.982746328306586869e-01
3.421710855427713938e+01 1.970336712831470827e-01
3.457728864432216653e+01 1.957936117119526975e-01
3.493746873436718658e+01 1.945545639261122839e-01
3.529764882441220664e+01 1.933166392240785736e-01
3.565782891445722669e+01 1.920799505646810512e-01
3.601800900450224674e+01 1.908446127475938170e-01
3.637818909454726679e+01 1.896107426044231492e-01
3.673836918459229395e+01 1.883784592016271575e-01
3.709854927463732110e+01 1.871478840565896640e-01
3.745872936468234116e+01 1.859191413682844962e-01
3.781890945472736831e+01 1.846923582641072092e-01
3.817908954477238836e+01 1.834676650645968854e-01
3.853926963481740842e+01 1.822451955679505187e-01
3.889944972486243557e+01 1.810250873564061003e-01
3.925962981490745562e+01 1.798074821268021428e-01
3.961980990495248278e+01 1.785925260478444798e-01
3.997998999499749573e+01 1.773803701468869565e-01
4.034017008504251578e+01 1.761711707293231455e-01
4.070035017508754294e+01 1.749650898340303629e-01
4.106053026513257009e+01 1.737622957286677483e-01
4.142071035517759015e+01 1.725629634490560838e-01
4.178089044522261020e+01 1.713672753873275445e-01
4.214107053526763735e+01 1.701754219340587959e-01
4.250125062531265741e+01 1.689876021801708927e-01
4.286143071535768456e+01 1.678040246850395212e-01
4.322161080540270461e+01 1.666249083179628665e-01
4.358179089544772467e+01 1.654504831809475440e-01
4.394197098549275182e+01 1.642809916216446398e-01
4.430215107553776477e+01 1.631166893462576428e-01
4.466233116558278482e+01 1.619578466433150565e-01
4.502251125562781198e+01 1.608047497303814188e-01
4.538269134567283203e+01 1.596577022370743726e-01
4.574287143571785919e+01 1.585170268391428716e-01
4.610305152576287924e+01 1.573830670598649617e-01
4.646323161580789929e+01 1.562561892566073363e-01
4.682341170585292645e+01 1.551367848120449033e-01
4.718359179589794650e+01 1.540252725512377963e-01
4.754377188594297365e+01 1.529221014074328144e-01
4.790395197598799371e+01 1.518277533610523922e-01
4.826413206603301376e+01 1.507427466777207792e-01
4.862431215607804091e+01 1.496676394722161185e-01
4.898449224612306097e+01 1.486030336257354867e-01
4.934467233616808812e+01 1.475495790835034404e-01
4.970485242621310817e+01 1.465079785582178995e-01
5.006503251625812823e+01 1.454789926615818185e-01
5.042521260630315538e+01 1.444634454805918122e-01
5.078539269634817543e+01 1.434622306065502229e-01
5.114557278639320259e+01 1.424763176118497288e-01
5.150575287643822264e+01 1.415067589512405133e-01
5.186593296648324269e+01 1.405546972389266625e-01
5.222611305652826985e+01 1.396213728186404546e-01
5.258629314657328280e+01 1.387081314987730907e-01
5.294647323661830285e+01 1.378164322664482688e-01
5.330665332666333001e+01 1.369478547209880825e-01
5.366683341670835006e+01 1.361041058767571421e-01
5.402701350675337721e+01 1.352870258770896561e-01
5.438719359679839727e+01 1.344985920358265918e-01
5.474737368684341732e+01 1.337409204847297695e-01
5.510755377688844447e+01 1.330162645617997130e-01
5.546773386693346453e+01 1.323270089412919570e-01
5.582791395697849168e+01 1.316756584023860976e-01
5.618809404702351173e+01 1.310648200898625326e-01
5.654827413706853179e+01 1.304971781744052595e-01
5.690845422711355894e+01 1.299754600150099526e-01
5.726863431715857899e+01 1.295023933025672425e-01
5.762881440720360615e+01 1.290806542508561305e-01
5.798899449724862620e+01 1.287128077009884464e-01
5.834917458729364625e+01 1.284012409773133967e-01
5.870935467733865920e+01 1.281480943819862384e-01
5.906953476738369346e+01 1.279551921915667023e-01
5.942971485742870641e+01 1.278239787327896393e-01
5.978989494747374067e+01 1.277554643745937857e-01
6.015007503751875362e+01 1.277501859371976134e-01
6.051025512756378788e+01 1.278081850451098511e-01
6.087043521760880083e+01 1.279290064308140906e-01
6.123061530765383509e+01 1.281117163486886756e-01
6.159079539769884803e+01 1.283549393850203502e-01
6.195097548774387519e+01 1.286569103571449657e-01
6.231115557778889524e+01 1.290155369197013568e-01
6.267133566783392240e+01 1.294284680529558251e-01
6.303151575787893535e+01 1.298931637764454139e-01
6.339169584792396250e+01 1.304069620820140774e-01
6.375187593796898256e+01 1.309671400264817986e-01
6.411205602801400971e+01 1.315709669730306397e-01
6.447223611805902976e+01 1.322157489633814798e-01
6.483241620810404982e+01 1.328988640354993589e-01
6.519259629814906987e+01 1.336177889249992312e-01
6.555277638819410413e+01 1.343701179986254157e-01
6.591295647823912418e+01 1.351535754906540154e-01
6.627313656828414423e+01 1.359660221877247166e-01
6.663331665832916428e+01 1.368054576775341868e-01
6.699349674837418434e+01 1.376700191807044837e-01
6.735367683841920439e+01 1.385579778542825879e-01
6.771385692846423865e+01 1.394677333124218488e-01
6.807403701850924449e+01 1.403978069700160258e-01
6.843421710855427875e+01 1.413468346873255621e-01
6.879439719859929880e+01 1.423135590824251562e-01
6.915457728864433307e+01 1.432968217848734349e-01
6.951475737868933891e+01 1.442955558278473660e-01
6.987493746873437317e+01 1.453087783153932666e-01
7.023511755877939322e+01 1.463355834543394740e-01
7.059529764882441327e+01 1.473751360045559844e-01
7.095547773886943332e+01 1.484266651745517751e-01
7.131565782891445338e+01 1.494894589699935494e-01
7.167583791895947343e+01 1.505628589890147528e-01
7.203601800900449348e+01 1.516462556488499813e-01
7.239619809904952774e+01 1.527390838222909275e-01
7.275637818909453358e+01 1.538408188588867853e-01
7.311655827913956784e+01 1.549509729640088651e-01
7.347673836918458790e+01 1.560690919083939920e-01
7.383691845922962216e+01 1.571947520411430821e-01
7.419709854927464221e+01 1.583275575801272039e-01
7.455727863931966226e+01 1.594671381550921974e-01
7.491745872936468231e+01 1.606131465803101732e-01
7.527763881940970236e+01 1.617652568353115383e-01
7.563781890945473663e+01 1.629231622339109009e-01
7.599799899949974247e+01 1.640865737634107646e-01
7.635817908954477673e+01 1.652552185774742721e-01
7.671835917958979678e+01 1.664288386276580600e-01
7.707853926963481683e+01 1.676071894200234225e-01
7.743871935967983688e+01 1.687900388845395283e-01
7.779889944972487115e+01 1.699771663461922266e-01
7.815907953976987699e+01 1.711683615878141496e-01
7.851925962981491125e+01 1.723634239956371161e-01
7.887943971985993130e+01 1.735621617794761984e-01
7.923961980990496556e+01 1.747643912602556138e-01
7.959979989994997140e+01 1.759699362183375082e-01
7.995997998999499146e+01 1.771786272967488807e-01
8.032016008004002572e+01 1.783903014540137444e-01
8.068034017008503156e+01 1.796048014618130406e-01
8.104052026013006582e+01 1.808219754431729387e-01
8.140070035017508587e+01 1.820416764473137550e-01
8.176088044022012014e+01 1.832637620576569037e-01
8.212106053026514019e+01 1.844880940298409822e-01
8.248124062031016024e+01 1.857145379568958810e-01
8.284142071035518029e+01 1.869429629589949293e-01
8.320160080040021455e+01 1.881732413954445293e-01
8.356178089044522039e+01 1.894052485968026056e-01
8.392196098049024044e+01 1.906388626151898358e-01
8.428214107053527471e+01 1.918739639910395922e-01
8.464232116058028055e+01 1.931104355347010026e-01
8.500250125062531481e+01 1.943481621214180333e-01
8.536268134067033486e+01 1.955870304983590435e-01
8.572286143071536912e+01 1.968269291024574152e-01
8.608304152076037496e+01 1.980677478879424025e-01
8.644322161080540923e+01 1.993093781624990235e-01
8.680340170085042928e+01 2.005517124311056998e-01
8.716358179089544933e+01 2.017946442466301560e-01
8.752376188094046938e+01 2.030380680663485815e-01
8.788394197098550364e+01 2.042818791135928291e-01
8.824412206103050949e+01 2.055259732437786924e-01
8.860430215107552954e+01 2.067702468140986405e-01
8.896448224112056380e+01 2.080145965562145149e-01
8.932466233116556964e+01 2.092589194512785578e-01
8.968484242121060390e+01 2.105031126066707892e-01
9.004502251125562395e+01 2.117470731338260137e-01
9.040520260130065822e+01 2.129906980265512395e-01
9.076538269134566406e+01 2.142338840392373489e-01
9.112556278139069832e+01 2.154765275643693578e-01
9.148574287143571837e+01 2.167185245087385748e-01
9.184592296148073842e+01 2.179597701677548349e-01
9.220610305152575847e+01 2.192001590972402769e-01
9.256628314157076431e+01 2.204395849820784403e-01
9.292646323161579858e+01 2.216779405010608495e-01
9.328664332166081863e+01 2.229151171872621184e-01
9.364682341170585289e+01 2.241510052832256794e-01
9.400700350175085873e+01 2.253854935902238898e-01
9.436718359179589299e+01 2.266184693108030945e-01
9.472736368184091305e+01 2.278498178837772836e-01
9.508754377188594731e+01 2.290794228107838615e-01
9.544772386193095315e+01 2.303071654734487606e-01
9.580790395197598741e+01 2.315329249401429923e-01
9.616808404202102167e+01 2.327565777612253528e-01
9.652826413206602751e+01 2.339779977515959453e-01
9.688844422211106178e+01 2.351970557592671374e-01
9.724862431215608183e+01 2.364136194185702811e-01
9.760880440220111609e+01 2.376275528864853492e-01
9.796898449224612193e+01 2.388387165604469731e-01
9.832916458229115619e+01 2.400469667758546033e-01
9.868934467233617625e+01 2.412521554813116254e-01
9.904952476238119630e+01 2.424541298894924701e-01
9.940970485242621635e+01 2.436527321012912639e-01
9.976988494247125061e+01 2.448477987007231516e-01
1.001300650325162565e+02 2.460391603177922992e-01
1.004902451225612907e+02 2.472266411562881461e-01
1.008504252126063108e+02 2.484100584831806791e-01
1.012106053026513166e+02 2.495892220759722002e-01
1.015707853926963509e+02 2.507639336240228833e-01
1.019309654827413709e+02 2.519339860794962971e-01
1.022911455727864052e+02 2.530991629531547105e-01
1.026513256628314110e+02 2.542592375498160528e-01
1.030115057528764453e+02 2.554139721377998162e-01
1.033716858429214653e+02 2.565631170461859512e-01
1.037318659329664854e+02 2.577064096831895856e-01
1.040920460230115054e+02 2.588435734683708356e-01
1.044522261130565397e+02 2.599743166708417541e-01
1.048124062031015455e+02 2.610983311449980304e-01
1.051725862931465656e+02 2.622152909547315058e-01
1.055327663831915999e+02 2.633248508764701179e-01
1.058929464732366057e+02 2.644266447708459866e-01
1.062531265632816400e+02 2.655202838123053022e-01
1.066133066533266600e+02 2.666053545655999168e-01
1.069734867433716943e+02 2.676814168978762232e-01
1.073336668334167001e+02 2.687480017151117062e-01
1.076938469234617344e+02 2.698046085119817916e-01
1.080540270135067544e+02 2.708507027250259824e-01
1.084142071035517745e+02 2.718857128803534029e-01
1.087743871935967945e+02 2.729090275292674894e-01
1.091345672836418004e+02 2.739199919683171780e-01
1.094947473736868346e+02 2.749179047446943525e-01
1.098549274637318547e+02 2.759020139539005712e-01
1.102151075537768889e+02 2.768715133446247867e-01
1.105752876438218948e+02 2.778255382562155318e-01
1.109354677338669291e+02 2.787631614276295244e-01
1.112956478239119491e+02 2.796833887336946933e-01
1.116558279139569834e+02 2.805851549256967448e-01
1.120160080040019892e+02 2.814673194791988964e-01
1.123761880940470235e+02 2.823286626830786017e-01
1.127363681840920293e+02 2.831678821403872393e-01
1.130965482741370636e+02 2.839835898937544401e-01
1.134567283641820836e+02 2.847743104349558796e-01
1.138169084542271179e+02 2.855384799087581915e-01
1.141770885442721237e+02 2.862744468725070823e-01
1.145372686343171580e+02 2.869804750213528211e-01
1.148974487243621780e+02 2.876547483287373863e-01
1.152576288144072123e+02 2.882953790751452416e-01
1.156178089044522181e+02 2.889004192355630884e-01
1.159779889944972524e+02 2.894678756564640354e-01
1.163381690845422867e+02 2.899957293646885925e-01
1.166983491745872925e+02 2.904819592028373143e-01
1.170585292646323126e+02 2.909245697715302503e-01
1.174187093546773184e+02 2.913216233778784248e-01
1.177788894447223811e+02 2.916712753510777856e-01
1.181390695347673869e+02 2.919718117122800938e-01
1.184992496248124070e+02 2.922216878122395611e-01
1.188594297148574128e+02 2.924195662238759930e-01
1.192196098049024613e+02 2.925643519512109436e-01
1.195797898949474813e+02 2.926552229417807571e-01
1.199399699849925014e+02 2.926916540037262648e-01
1.203001500750375072e+02 2.926734325438071216e-01
1.206603301650825557e+02 2.926006650401198894e-01
1.210205102551275758e+02 2.924737737928416181e-01
1.213806903451725816e+02 2.922934841829643027e-01
1.217408704352176017e+02 2.920608033267644843e-01
1.221010505252626075e+02 2.917769915623094068e-01
1.224612306153076702e+02 2.914435285838918865e-01
1.228214107053526760e+02 2.910620762213866897e-01
1.231815907953976961e+02 2.906344398469165036e-01
1.235417708854427019e+02 2.901625302107389559e-01
1.239019509754877504e+02 2.896483272094934613e-01
1.242621310655327704e+02 2.890938467263283185e-01
1.246223111555777905e+02 2.885011113041483499e-01
1.249824912456227963e+02 2.878721250598733628e-01
1.253426713356678448e+02 2.872088529458308170e-01
1.257028514257128649e+02 2.865132042275324031e-01
1.260630315157578707e+02 2.857870198776526482e-01
1.264232116058028907e+02 2.850320634789000884e-01
1.267833916958479250e+02 2.842500151738386882e-01
1.271435717858929593e+02 2.834424681861096307e-01
1.275037518759379651e+02 2.826109274533785132e-01
1.278639319659829852e+02 2.817568099475775134e-01
1.282241120560280194e+02 2.808814463042417775e-01
1.285842921460730395e+02 2.799860834336757587e-01
1.289444722361180595e+02 2.790718878377714818e-01
1.293046523261630796e+02 2.781399494046236098e-01
1.296648324162080996e+02 2.771912854968871520e-01
1.300250125062531197e+02 2.762268451883025944e-01
1.303851925962981397e+02 2.752475135357213554e-01
1.307453726863431598e+02 2.742541158015504021e-01
1.311055527763882083e+02 2.732474215641959026e-01
1.314657328664331999e+02 2.722281486724089650e-01
1.318259129564782484e+02 2.711969670140023658e-01
1.321860930465232684e+02 2.701545020808154285e-01
1.325462731365682885e+02 2.691013383205798637e-01
1.329064532266133085e+02 2.680380222729470963e-01
1.332666333166583286e+02 2.669650654918795940e-01
1.336268134067033770e+02 2.658829472600809374e-01
1.339869934967483687e+02 2.647921171036266563e-01
1.343471735867933887e+02 2.636929971165319908e-01
1.347073536768384088e+02 2.625859841059740019e-01
1.350675337668834572e+02 2.614714515693409846e-01
1.354277138569284773e+02 2.603497515144203578e-01
1.357878939469734973e+02 2.592212161338733889e-01
1.361480740370184890e+02 2.580861593448269264e-01
1.365082541270635375e+02 2.569448782039523982e-01
1.368684342171085575e+02 2.557976542078699844e-01
1.372286143071535776e+02 2.546447544881311753e-01
1.375887943971985976e+02 2.534864329094417279e-01
1.379489744872436461e+02 2.523229310791716973e-01
1.383091545772886661e+02 2.511544792756202349e-01
1.386693346673336578e+02 2.499812973019172324e-01
1.390295147573786778e+02 2.488035952719207522e-01
1.393896948474236979e+02 2.476215743339308384e-01
1.397498749374687463e+02 2.464354273375777282e-01
1.401100550275137664e+02 2.452453394487887073e-01
1.404702351175587864e+02 2.440514887173155512e-01
1.408304152076037781e+02 2.428540466009332655e-01
1.411905952976488265e+02 2.416531784500603464e-01
1.415507753876938466e+02 2.404490439562286808e-01
1.419109554777388666e+02 2.392417975675398822e-01
1.422711355677838867e+02 2.380315888739707175e-01
1.426313156578289068e+02 2.368185629651455015e-01
1.429914957478739552e+02 2.356028607629729599e-01
1.433516758379189469e+02 2.343846193313359749e-01
