Theta (degrees)	Normalized Energy
0.000000000000000000e+00 2.910363898346837953e-16
3.601800900450224940e-01 4.053235517074372444e-06
7.203601800900449881e-01 1.621273603599741959e-05
1.080540270135067704e+00 3.647788343003770440e-05
1.440720360180089976e+00 6.484764738162661596e-05
1.800900450225112692e+00 1.013205852278908187e-04
2.161080540270135408e+00 1.458948417348807265e-04
2.521260630315157236e+00 1.985681488167204622e-04
2.881440720360179952e+00 2.593378251828716867e-04
3.241620810405202668e+00 3.282007759219516445e-04
3.601800900450225384e+00 4.051534920214501685e-04
3.961980990495247656e+00 4.901920498181804768e-04
4.322161080540270817e+00 5.833121103753156596e-04
4.682341170585292645e+00 6.845089187985985233e-04
5.042521260630314472e+00 7.937773034726625402e-04
5.402701350675338077e+00 9.111116752248108906e-04
5.762881440720359905e+00 1.036506026417274807e-03
6.123061530765382621e+00 1.169953929955578741e-03
6.483241620810405337e+00 1.311448538222475049e-03
6.843421710855427165e+00 1.460982581924857903e-03
7.203601800900450769e+00 1.618548368856929844e-03
7.563781890945473485e+00 1.784137782575042405e-03
7.923961980990495313e+00 1.957742280980784375e-03
8.284142071035518029e+00 2.139352894806427485e-03
8.644322161080541633e+00 2.328960226008699314e-03
9.004502251125561685e+00 2.526554446051083522e-03
9.364682341170585289e+00 2.732125294083534179e-03
9.724862431215608893e+00 2.945662075012977967e-03
1.008504252126062894e+01 3.167153657453252238e-03
1.044522261130565255e+01 3.396588471558194267e-03
1.080540270135067615e+01 3.633954506722381940e-03
1.116558279139569620e+01 3.879239309155343724e-03
1.152576288144071981e+01 4.132429979315128087e-03
1.188594297148574341e+01 4.393513169194825617e-03
1.224612306153076524e+01 4.662475079457389579e-03
1.260630315157578885e+01 4.939301456413873817e-03
1.296648324162081067e+01 5.223977588832297465e-03
1.332666333166583250e+01 5.516488304566711208e-03
1.368684342171085433e+01 5.816817967012448583e-03
1.404702351175587793e+01 6.124950471350519912e-03
1.440720360180090154e+01 6.440869240604796611e-03
1.476738369184592337e+01 6.764557221471968404e-03
1.512756378189094697e+01 7.095996879930677181e-03
1.548774387193596880e+01 7.435170196610694365e-03
1.584792396198099063e+01 7.782058661906559628e-03
1.620810405202601245e+01 8.136643270835266367e-03
1.656828414207103606e+01 8.498904517602387867e-03
1.692846423211605966e+01 8.868822389881247242e-03
1.728864432216108327e+01 9.246376362774722316e-03
1.764882441220610332e+01 9.631545392449539916e-03
1.800900450225112337e+01 1.002430790942011006e-02
1.836918459229614697e+01 1.042464181146229157e-02
1.872936468234117058e+01 1.083252445614264585e-02
1.908954477238619418e+01 1.124793265292311530e-02
1.944972486243121779e+01 1.167084265483862675e-02
1.980990495247624139e+01 1.210123014970561003e-02
2.017008504252125789e+01 1.253907025083495289e-02
2.053026513256628505e+01 1.298433748723083932e-02
2.089044522261130510e+01 1.343700579322883518e-02
2.125062531265632870e+01 1.389704849754935974e-02
2.161080540270135231e+01 1.436443831172694828e-02
2.197098549274637591e+01 1.483914731787282747e-02
2.233116558279139241e+01 1.532114695573310453e-02
2.269134567283641601e+01 1.581040800900010077e-02
2.305152576288143962e+01 1.630690059081581558e-02
2.341170585292646322e+01 1.681059412843577058e-02
2.377188594297148683e+01 1.732145734697848258e-02
2.413206603301650688e+01 1.783945825221023088e-02
2.449224612306153048e+01 1.836456411230593527e-02
2.485242621310655409e+01 1.889674143850151450e-02
2.521260630315157769e+01 1.943595596458133623e-02
2.557278639319660130e+01 1.998217262510789197e-02
2.593296648324162135e+01 2.053535553231381622e-02
2.629314657328664140e+01 2.109546795156029900e-02
2.665332666333166500e+01 2.166247227526656161e-02
2.701350675337668861e+01 2.223632999519577214e-02
2.737368684342170866e+01 2.281700167298571572e-02
2.773386693346673226e+01 2.340444690879268236e-02
2.809404702351175587e+01 2.399862430792494561e-02
2.845422711355677947e+01 2.459949144529673809e-02
2.881440720360180308e+01 2.520700482756412994e-02
2.917458729364682313e+01 2.582111985275740637e-02
2.953476738369184673e+01 2.644179076722499855e-02
2.989494747373687034e+01 2.706897061968597390e-02
3.025512756378189394e+01 2.770261121216609224e-02
3.061530765382691754e+01 2.834266304758332328e-02
3.097548774387193760e+01 2.898907527371919271e-02
3.133566783391696120e+01 2.964179562327954806e-02
3.169584792396198125e+01 3.030077034975690517e-02
3.205602801400700486e+01 3.096594415873217196e-02
3.241620810405202491e+01 3.163726013426829131e-02
3.277638819409705206e+01 3.231465965997554896e-02
3.313656828414207212e+01 3.299808233432006271e-02
3.349674837418709217e+01 3.368746587968955014e-02
3.385692846423211932e+01 3.438274604469145068e-02
3.421710855427713938e+01 3.508385649910718274e-02
3.457728864432216653e+01 3.579072872086763030e-02
3.493746873436718658e+01 3.650329187436342215e-02
3.529764882441220664e+01 3.722147267932215259e-02
3.565782891445722669e+01 3.794519526942232573e-02
3.601800900450224674e+01 3.867438103971933272e-02
3.637818909454726679e+01 3.940894848188037508e-02
3.673836918459229395e+01 4.014881300610374099e-02
3.709854927463732110e+01 4.089388674850726046e-02
3.745872936468234116e+01 4.164407836261683343e-02
3.781890945472736831e+01 4.239929279347592200e-02
3.817908954477238836e+01 4.315943103270965947e-02
3.853926963481740842e+01 4.392438985272484331e-02
3.889944972486243557e+01 4.469406151802261806e-02
3.925962981490745562e+01 4.546833347138747733e-02
3.961980990495248278e+01 4.624708799246281254e-02
3.997998999499749573e+01 4.703020182597576065e-02
4.034017008504251578e+01 4.781754577654822452e-02
4.070035017508754294e+01 4.860898426671094591e-02
4.106053026513257009e+01 4.940437485434938381e-02
4.142071035517759015e+01 5.020356770540648078e-02
4.178089044522261020e+01 5.100640501718222558e-02
4.214107053526763735e+01 5.181272038705533184e-02
4.250125062531265741e+01 5.262233812087580009e-02
4.286143071535768456e+01 5.343507247461661697e-02
4.322161080540270461e+01 5.425072682216781905e-02
4.358179089544772467e+01 5.506909274133366811e-02
4.394197098549275182e+01 5.588994900923223430e-02
4.430215107553776477e+01 5.671306049729830240e-02
4.466233116558278482e+01 5.753817695501874802e-02
4.502251125562781198e+01 5.836503167034528400e-02
4.538269134567283203e+01 5.919333999344073699e-02
4.574287143571785919e+01 6.002279770902298889e-02
4.610305152576287924e+01 6.085307924105963495e-02
4.646323161580789929e+01 6.168383567199459822e-02
4.682341170585292645e+01 6.251469255701772032e-02
4.718359179589794650e+01 6.334524751220201033e-02
4.754377188594297365e+01 6.417506755364808801e-02
4.790395197598799371e+01 6.500368616318809301e-02
4.826413206603301376e+01 6.583060005481557175e-02
4.862431215607804091e+01 6.665526561495546676e-02
4.898449224612306097e+01 6.747709498920813342e-02
4.934467233616808812e+01 6.829545178853684007e-02
4.970485242621310817e+01 6.910964638942444782e-02
5.006503251625812823e+01 6.991893080575134478e-02
5.042521260630315538e+01 7.072249311573532149e-02
5.078539269634817543e+01 7.151945143597950028e-02
5.114557278639320259e+01 7.230884744757341831e-02
5.150575287643822264e+01 7.308963949756180911e-02
5.186593296648324269e+01 7.386069532442715579e-02
5.222611305652826985e+01 7.462078449045038420e-02
5.258629314657328280e+01 7.536857064887374225e-02
5.294647323661830285e+01 7.610260383198572121e-02
5.330665332666333001e+01 7.682131301968803117e-02
5.366683341670835006e+01 7.752299933855548442e-02
5.402701350675337721e+01 7.820583034969276481e-02
5.438719359679839727e+01 7.886783600886698720e-02
5.474737368684341732e+01 7.950690702065277282e-02
5.510755377688844447e+01 8.012079645155700813e-02
5.546773386693346453e+01 8.070712560135186175e-02
5.582791395697849168e+01 8.126339523563896883e-02
5.618809404702351173e+01 8.178700332631955172e-02
5.654827413706853179e+01 8.227527039233130390e-02
5.690845422711355894e+01 8.272547333819231519e-02
5.726863431715857899e+01 8.313488831127323342e-02
5.762881440720360615e+01 8.350084251157195714e-02
5.798899449724862620e+01 8.382077408794513795e-02
5.834917458729364625e+01 8.409229828279618513e-02
5.870935467733865920e+01 8.431327693801150824e-02
5.906953476738369346e+01 8.448188749877993953e-02
5.942971485742870641e+01 8.459668693816123353e-02
5.978989494747374067e+01 8.465666576530882226e-02
6.015007503751875362e+01 8.466128761656434298e-02
6.051025512756378788e+01 8.461051090254008422e-02
6.087043521760880083e+01 8.450479050443313045e-02
6.123061530765383509e+01 8.434505936003894311e-02
6.159079539769884803e+01 8.413269165357600832e-02
6.195097548774387519e+01 8.386945091630565452e-02
6.231115557778889524e+01 8.355742741995712819e-02
6.267133566783392240e+01 8.319896968799600501e-02
6.303151575787893535e+01 8.279661478149108467e-02
6.339169584792396250e+01 8.235302136550140539e-02
6.375187593796898256e+01 8.187090861574351786e-02
6.411205602801400971e+01 8.135300297645442491e-02
6.447223611805902976e+01 8.080199378737198956e-02
6.483241620810404982e+01 8.022049796509719832e-02
6.519259629814906987e+01 7.961103330066059136e-02
6.555277638819410413e+01 7.897599952491336783e-02
6.591295647823912418e+01 7.831766607091042443e-02
6.627313656828414423e+01 7.763816538774385989e-02
6.663331665832916428e+01 7.693949069042631261e-02
6.699349674837418434e+01 7.622349712648124331e-02
6.735367683841920439e+01 7.549190547079348557e-02
6.771385692846423865e+01 7.474630760316230971e-02
6.807403701850924449e+01 7.398817316278422096e-02
6.843421710855427875e+01 7.321885690161428206e-02
6.879439719859929880e+01 7.243960636978422074e-02
6.915457728864433307e+01 7.165156965966001934e-02
6.951475737868933891e+01 7.085580301129573710e-02
6.987493746873437317e+01 7.005327814262894692e-02
7.023511755877939322e+01 6.924488921486092463e-02
7.059529764882441327e+01 6.843145937933244050e-02
7.095547773886943332e+01 6.761374687889876167e-02
7.131565782891445338e+01 6.679245069621035646e-02
7.167583791895947343e+01 6.596821575502528900e-02
7.203601800900449348e+01 6.514163769000588800e-02
7.239619809904952774e+01 6.431326720649559181e-02
7.275637818909453358e+01 6.348361405535241087e-02
7.311655827913956784e+01 6.265315064969081971e-02
7.347673836918458790e+01 6.182231535092964220e-02
7.383691845922962216e+01 6.099151545113593031e-02
7.419709854927464221e+01 6.016112987771535942e-02
7.455727863931966226e+01 5.933151164514442744e-02
7.491745872936468231e+01 5.850299007687065345e-02
7.527763881940970236e+01 5.767587281884881123e-02
7.563781890945473663e+01 5.685044766447228115e-02
7.599799899949974247e+01 5.602698420900508597e-02
7.635817908954477673e+01 5.520573535000428134e-02
7.671835917958979678e+01 5.438693864872232858e-02
7.707853926963481683e+01 5.357081756605476530e-02
7.743871935967983688e+01 5.275758258529629485e-02
7.779889944972487115e+01 5.194743223276722388e-02
7.815907953976987699e+01 5.114055400627550568e-02
7.851925962981491125e+01 5.033712522038547715e-02
7.887943971985993130e+01 4.953731377655856000e-02
7.923961980990496556e+01 4.874127886542232307e-02
7.959979989994997140e+01 4.794917160768519954e-02
7.995997998999499146e+01 4.716113563955959265e-02
8.032016008004002572e+01 4.637730764795805483e-02
8.068034017008503156e+01 4.559781786020002808e-02
8.104052026013006582e+01 4.482279049248834302e-02
8.140070035017508587e+01 4.405234416098374045e-02
8.176088044022012014e+01 4.328659225893270734e-02
8.212106053026514019e+01 4.252564330294709288e-02
8.248124062031016024e+01 4.176960125123940076e-02
8.284142071035518029e+01 4.101856579633841177e-02
8.320160080040021455e+01 4.027263263455444636e-02
8.356178089044522039e+01 3.953189371426087811e-02
8.392196098049024044e+01 3.879643746484334743e-02
8.428214107053527471e+01 3.806634900799507615e-02
8.464232116058028055e+01 3.734171035288427754e-02
8.500250125062531481e+01 3.662260057656505086e-02
8.536268134067033486e+01 3.590909599088612514e-02
8.572286143071536912e+01 3.520127029701790311e-02
8.608304152076037496e+01 3.449919472864319825e-02
8.644322161080540923e+01 3.380293818472371314e-02
8.680340170085042928e+01 3.311256735271361079e-02
8.716358179089544933e+01 3.242814682297379819e-02
8.752376188094046938e+01 3.174973919510437614e-02
8.788394197098550364e+01 3.107740517682740233e-02
8.824412206103050949e+01 3.041120367601412439e-02
8.860430215107552954e+01 2.975119188637742954e-02
8.896448224112056380e+01 2.909742536734024124e-02
8.932466233116556964e+01 2.844995811849689374e-02
8.968484242121060390e+01 2.780884264910315345e-02
9.004502251125562395e+01 2.717413004295311796e-02
9.040520260130065822e+01 2.654587001899130771e-02
9.076538269134566406e+01 2.592411098797528859e-02
9.112556278139069832e+01 2.530890010547404492e-02
9.148574287143571837e+01 2.470028332147171032e-02
9.184592296148073842e+01 2.409830542682032256e-02
9.220610305152575847e+01 2.350301009676061120e-02
9.256628314157076431e+01 2.291443993172602098e-02
9.292646323161579858e+01 2.233263649561268924e-02
9.328664332166081863e+01 2.175764035169799535e-02
9.364682341170585289e+01 2.118949109635973743e-02
9.400700350175085873e+01 2.062822739076106485e-02
9.436718359179589299e+01 2.007388699062157694e-02
9.472736368184091305e+01 1.952650677421680775e-02
9.508754377188594731e+01 1.898612276871466248e-02
9.544772386193095315e+01 1.845277017496612521e-02
9.580790395197598741e+01 1.792648339084289277e-02
9.616808404202102167e+01 1.740729603322741306e-02
9.652826413206602751e+01 1.689524095872676004e-02
9.688844422211106178e+01 1.639035028321120940e-02
9.724862431215608183e+01 1.589265540023101705e-02
9.760880440220111609e+01 1.540218699840134944e-02
9.796898449224612193e+01 1.491897507780419463e-02
9.832916458229115619e+01 1.444304896547843851e-02
9.868934467233617625e+01 1.397443733004660217e-02
9.904952476238119630e+01 1.351316819554083601e-02
9.940970485242621635e+01 1.305926895446258250e-02
9.976988494247125061e+01 1.261276638013445438e-02
1.001300650325162565e+02 1.217368663837953280e-02
1.004902451225612907e+02 1.174205529857128005e-02
1.008504252126063108e+02 1.131789734408612108e-02
1.012106053026513166e+02 1.090123718220194389e-02
1.015707853926963509e+02 1.049209865346279087e-02
1.019309654827413709e+02 1.009050504055393309e-02
1.022911455727864052e+02 9.696479076700887864e-03
1.026513256628314110e+02 9.310042953631740559e-03
1.030115057528764453e+02 8.931218329119866225e-03
1.033716858429214653e+02 8.560026334131262682e-03
1.037318659329664854e+02 8.196487579601128073e-03
1.040920460230115054e+02 7.840622162856223515e-03
1.044522261130565397e+02 7.492449673708305273e-03
1.048124062031015455e+02 7.151989200223560043e-03
1.051725862931465656e+02 6.819259334205508144e-03
1.055327663831915999e+02 6.494278176383530207e-03
1.058929464732366057e+02 6.177063341343384979e-03
1.062531265632816400e+02 5.867631962195581780e-03
1.066133066533266600e+02 5.566000695010409234e-03
1.069734867433716943e+02 5.272185723017880354e-03
1.073336668334167001e+02 4.986202760593841724e-03
1.076938469234617344e+02 4.708067057042210173e-03
1.080540270135067544e+02 4.437793400175082080e-03
1.084142071035517745e+02 4.175396119712767098e-03
1.087743871935967945e+02 3.920889090502067097e-03
1.091345672836418004e+02 3.674285735569251133e-03
1.094947473736868346e+02 3.435599029008151901e-03
1.098549274637318547e+02 3.204841498719620662e-03
1.102151075537768889e+02 2.982025228999274965e-03
1.105752876438218948e+02 2.767161862991447153e-03
1.109354677338669291e+02 2.560262605004595682e-03
1.112956478239119491e+02 2.361338222702591329e-03
1.116558279139569834e+02 2.170399049170638854e-03
1.120160080040019892e+02 1.987454984869223111e-03
1.123761880940470235e+02 1.812515499468655674e-03
1.127363681840920293e+02 1.645589633584235243e-03
1.130965482741370636e+02 1.486686000402194204e-03
1.134567283641820836e+02 1.335812787206693952e-03
1.138169084542271179e+02 1.192977756816599420e-03
1.141770885442721237e+02 1.058188248921844779e-03
1.145372686343171580e+02 9.314511813360541606e-04
1.148974487243621780e+02 8.127730511648345547e-04
1.152576288144072123e+02 7.021599358848661836e-04
1.156178089044522181e+02 5.996174943467409398e-04
1.159779889944972524e+02 5.051509676998758519e-04
1.163381690845422867e+02 4.187651802371009937e-04
1.166983491745872925e+02 3.404645401712901964e-04
1.170585292646323126e+02 2.702530403326837286e-04
1.174187093546773184e+02 2.081342588035663425e-04
1.177788894447223811e+02 1.541113594749470581e-04
1.181390695347673869e+02 1.081870925450315198e-04
1.184992496248124070e+02 7.036379494122503271e-05
1.188594297148574128e+02 4.064339068283650880e-05
1.192196098049024613e+02 1.902739117960907980e-05
1.195797898949474813e+02 5.516895459165039506e-06
1.199399699849925014e+02 1.125903390811095356e-07
1.203001500750375072e+02 2.814750530133595776e-06
1.206603301650825557e+02 1.362323867704348315e-05
1.210205102551275758e+02 3.253750534196012156e-05
1.213806903451725816e+02 5.955658891387615128e-05
1.217408704352176017e+02 9.467911546812967922e-05
1.221010505252626075e+02 1.379032985507463375e-04
1.224612306153076702e+02 1.892269389075570832e-04
1.228214107053526760e+02 2.486474241407026550e-04
1.231815907953976961e+02 3.161617283095497378e-04
1.235417708854427019e+02 3.917664114539007791e-04
1.239019509754877504e+02 4.754576190592872155e-04
1.242621310655327704e+02 5.672310814482669312e-04
1.246223111555777905e+02 6.670821131034009336e-04
1.249824912456227963e+02 7.750056119186349551e-04
1.253426713356678448e+02 8.909960583753751906e-04
1.257028514257128649e+02 1.015047514646096830e-03
1.260630315157578707e+02 1.147153623618279777e-03
1.264232116058028907e+02 1.287307607839839564e-03
1.267833916958479250e+02 1.435502268380155514e-03
1.271435717858929593e+02 1.591729983608372329e-03
1.275037518759379651e+02 1.755982707883010571e-03
1.278639319659829852e+02 1.928251970150551657e-03
1.282241120560280194e+02 2.108528872448639079e-03
1.285842921460730395e+02 2.296804088311488710e-03
1.289444722361180595e+02 2.493067861073876117e-03
1.293046523261630796e+02 2.697310002070929004e-03
1.296648324162080996e+02 2.909519888721508012e-03
1.300250125062531197e+02 3.129686462502885829e-03
1.303851925962981397e+02 3.357798226801148554e-03
1.307453726863431598e+02 3.593843244635295739e-03
1.311055527763882083e+02 3.837809136254150075e-03
1.314657328664331999e+02 4.089683076592044546e-03
1.318259129564782484e+02 4.349451792580011009e-03
1.321860930465232684e+02 4.617101560309049349e-03
1.325462731365682885e+02 4.892618202032885701e-03
1.329064532266133085e+02 5.175987083004775745e-03
1.332666333166583286e+02 5.467193108140693848e-03
1.336268134067033770e+02 5.766220718498380436e-03
1.339869934967483687e+02 6.073053887565460496e-03
1.343471735867933887e+02 6.387676117340567068e-03
1.347073536768384088e+02 6.710070434207971932e-03
1.350675337668834572e+02 7.040219384580190080e-03
1.354277138569284773e+02 7.378105030310446247e-03
1.357878939469734973e+02 7.723708943850556008e-03
1.361480740370184890e+02 8.077012203148402347e-03
1.365082541270635375e+02 8.437995386267766254e-03
1.368684342171085575e+02 8.806638565715441819e-03
1.372286143071535776e+02 9.182921302455132259e-03
1.375887943971985976e+02 9.566822639599013509e-03
1.379489744872436461e+02 9.958321095752462396e-03
1.383091545772886661e+02 1.035739465799003639e-02
1.386693346673336578e+02 1.076402077444787130e-02
1.390295147573786778e+02 1.117817634650695308e-02
1.393896948474236979e+02 1.159983772053670668e-02
1.397498749374687463e+02 1.202898067918689584e-02
1.401100550275137664e+02 1.246558043218679891e-02
1.404702351175587864e+02 1.290961160662830107e-02
1.408304152076037781e+02 1.336104823670257805e-02
1.411905952976488265e+02 1.381986375285286506e-02
1.415507753876938466e+02 1.428603097030894595e-02
1.419109554777388666e+02 1.475952207696409717e-02
1.422711355677838867e+02 1.524030862055682917e-02
1.426313156578289068e+02 1.572836149510436696e-02
1.429914957478739552e+02 1.622365092655020033e-02
1.433516758379189469e+02 1.672614645756651322e-02
