Theta (degrees)	Normalized Energy
0.000000000000000000e+00 2.926924155165473995e-01
3.599999999999999867e-01 2.926651143415074929e-01
7.199999999999999734e-01 2.925833701018789035e-01
1.080000000000000071e+00 2.924476558028129003e-01
1.439999999999999947e+00 2.922587439577280510e-01
1.800000000000000266e+00 2.920176840016712183e-01
2.160000000000000142e+00 2.917257728361503655e-01
2.520000000000000018e+00 2.913845203587400179e-01
2.879999999999999893e+00 2.909956119780261474e-01
3.239999999999999769e+00 2.905608700701315938e-01
3.600000000000000533e+00 2.900822161304912328e-01
3.960000000000000409e+00 2.895616350627302493e-01
4.320000000000000284e+00 2.890011426787738036e-01
4.679999999999999716e+00 2.884027571091938302e-01
5.040000000000000036e+00 2.877684744777262993e-01
5.400000000000000355e+00 2.871002489031656557e-01
5.759999999999999787e+00 2.863999766667594815e-01
6.120000000000000107e+00 2.856694842249419830e-01
6.479999999999999538e+00 2.849105196495914649e-01
6.840000000000000746e+00 2.841247470309068435e-01
7.200000000000001066e+00 2.833137433698204588e-01
7.560000000000000497e+00 2.824789975063808911e-01
7.920000000000000817e+00 2.816219106678645168e-01
8.280000000000001137e+00 2.807437982675266563e-01
8.640000000000000568e+00 2.798458926359108090e-01
9.000000000000000000e+00 2.789293464172566961e-01
9.359999999999999432e+00 2.779952364110515051e-01
9.720000000000002416e+00 2.770445676816227776e-01
1.008000000000000007e+01 2.760782777961214851e-01
1.044000000000000128e+01 2.750972410832039916e-01
1.080000000000000071e+01 2.741022728313871060e-01
1.116000000000000014e+01 2.730941333679434146e-01
1.151999999999999957e+01 2.720735319768309846e-01
1.188000000000000078e+01 2.710411306281443333e-01
1.224000000000000021e+01 2.699975475025108707e-01
1.260000000000000142e+01 2.689433603022357011e-01
1.295999999999999908e+01 2.678791093473145146e-01
1.331999999999999851e+01 2.668053004590927313e-01
1.368000000000000149e+01 2.657224076376776267e-01
1.404000000000000270e+01 2.646308755415026637e-01
1.440000000000000213e+01 2.635311217789381710e-01
1.475999999999999979e+01 2.624235390227135922e-01
1.512000000000000099e+01 2.613084969583355788e-01
1.548000000000000043e+01 2.601863440777560932e-01
1.584000000000000163e+01 2.590574093293677160e-01
1.620000000000000284e+01 2.579220036350564627e-01
1.656000000000000227e+01 2.567804212845707923e-01
1.691999999999999815e+01 2.556329412169364712e-01
1.728000000000000114e+01 2.544798281980426014e-01
1.764000000000000057e+01 2.533213339029493083e-01
1.800000000000000000e+01 2.521576979108515193e-01
1.835999999999999943e+01 2.509891486200525601e-01
1.871999999999999886e+01 2.498159040897325323e-01
1.908000000000000185e+01 2.486381728147660786e-01
1.944000000000000483e+01 2.474561544393295565e-01
1.980000000000000426e+01 2.462700404145652111e-01
2.016000000000000014e+01 2.450800146051272665e-01
2.052000000000000313e+01 2.438862538490312593e-01
2.088000000000000256e+01 2.426889284748401932e-01
2.124000000000000554e+01 2.414882027798864461e-01
2.160000000000000142e+01 2.402842354728991769e-01
2.196000000000000085e+01 2.390771800841264838e-01
2.232000000000000028e+01 2.378671853457682561e-01
2.267999999999999972e+01 2.366543955452971026e-01
2.303999999999999915e+01 2.354389508540313536e-01
2.340000000000000213e+01 2.342209876331069751e-01
2.376000000000000156e+01 2.330006387188361949e-01
2.412000000000000099e+01 2.317780336892600601e-01
2.448000000000000043e+01 2.305532991135577081e-01
2.484000000000000341e+01 2.293265587858454024e-01
2.520000000000000284e+01 2.280979339447715137e-01
2.556000000000000227e+01 2.268675434802048252e-01
2.591999999999999815e+01 2.256355041282199492e-01
2.627999999999999758e+01 2.244019306554861370e-01
2.663999999999999702e+01 2.231669360340957087e-01
2.700000000000000355e+01 2.219306316077921115e-01
2.736000000000000298e+01 2.206931272504941421e-01
2.772000000000000242e+01 2.194545315179626532e-01
2.808000000000000540e+01 2.182149517933950900e-01
2.844000000000000483e+01 2.169744944277079701e-01
2.880000000000000426e+01 2.157332648752101623e-01
2.916000000000000014e+01 2.144913678253537181e-01
2.951999999999999957e+01 2.132489073312142658e-01
2.987999999999999901e+01 2.120059869353352611e-01
3.024000000000000199e+01 2.107627097935480809e-01
3.059999999999999787e+01 2.095191787973775255e-01
3.096000000000000085e+01 2.082754966956207598e-01
3.132000000000000739e+01 2.070317662157013794e-01
3.168000000000000327e+01 2.057880901853818278e-01
3.204000000000000625e+01 2.045445716554437632e-01
3.240000000000000568e+01 2.033013140239380567e-01
3.276000000000000512e+01 2.020584211626352544e-01
3.312000000000000455e+01 2.008159975463164049e-01
3.348000000000000398e+01 1.995741483855778542e-01
3.383999999999999631e+01 1.983329797638502534e-01
3.420000000000000284e+01 1.970925987793655521e-01
3.456000000000000227e+01 1.958531136928577387e-01
3.492000000000000171e+01 1.946146340818222242e-01
3.528000000000000114e+01 1.933772710022223229e-01
3.564000000000000767e+01 1.921411371585930172e-01
3.600000000000000000e+01 1.909063470835712928e-01
3.636000000000000654e+01 1.896730173279549680e-01
3.671999999999999886e+01 1.884412666625007171e-01
3.707999999999999829e+01 1.872112162927624945e-01
3.743999999999999773e+01 1.859829900884061582e-01
3.780000000000000426e+01 1.847567148285560457e-01
3.816000000000000369e+01 1.835325204648893260e-01
3.852000000000000313e+01 1.823105404043544042e-01
3.888000000000000966e+01 1.810909118135851370e-01
3.924000000000000199e+01 1.798737759472878173e-01
3.960000000000000853e+01 1.786592785031138331e-01
3.996000000000000085e+01 1.774475700058004701e-01
4.032000000000000028e+01 1.762388062236489028e-01
4.067999999999999972e+01 1.750331486207465925e-01
4.104000000000000625e+01 1.738307648487041057e-01
4.139999999999999858e+01 1.726318292820942513e-01
4.176000000000000512e+01 1.714365236022379335e-01
4.211999999999999744e+01 1.702450374344975093e-01
4.248000000000001108e+01 1.690575690448137547e-01
4.283999999999999631e+01 1.678743261018584565e-01
4.320000000000000284e+01 1.666955265118897911e-01
4.356000000000000227e+01 1.655213993341898837e-01
4.392000000000000171e+01 1.643521857858296076e-01
4.428000000000000114e+01 1.631881403454915336e-01
4.464000000000000057e+01 1.620295319671331835e-01
4.500000000000000000e+01 1.608766454154516301e-01
4.535999999999999943e+01 1.597297827363860223e-01
4.571999999999999886e+01 1.585892648772737890e-01
4.607999999999999829e+01 1.574554334727663596e-01
4.644000000000000483e+01 1.563286528141817067e-01
4.680000000000000426e+01 1.552093120216212208e-01
4.716000000000000369e+01 1.540978274398598358e-01
4.752000000000000313e+01 1.529946452806995316e-01
4.788000000000000256e+01 1.519002445360566333e-01
4.824000000000000199e+01 1.508151401874702480e-01
4.860000000000000142e+01 1.497398867387653432e-01
4.896000000000000085e+01 1.486750820991533661e-01
4.932000000000000739e+01 1.476213718437668909e-01
4.968000000000000682e+01 1.465794538771790223e-01
5.004000000000000625e+01 1.455500835223617895e-01
5.040000000000000568e+01 1.445340790521772445e-01
5.076000000000000512e+01 1.435323276720379126e-01
5.112000000000000455e+01 1.425457919498780701e-01
5.148000000000000398e+01 1.415755166716912150e-01
5.183999999999999631e+01 1.406226360762062033e-01
5.220000000000000284e+01 1.396883813888791792e-01
5.255999999999999517e+01 1.387740885313399342e-01
5.292000000000000881e+01 1.378812058254748341e-01
5.327999999999999403e+01 1.370113014393452566e-01
5.364000000000000767e+01 1.361660702333150619e-01
5.400000000000000711e+01 1.353473395581957228e-01
5.436000000000000654e+01 1.345570734336913321e-01
5.472000000000000597e+01 1.337973743984671449e-01
5.507999999999999829e+01 1.330704821804643834e-01
5.544000000000000483e+01 1.323787682010564015e-01
5.579999999999999716e+01 1.317247248200168475e-01
5.616000000000001080e+01 1.311109481790103948e-01
5.651999999999999602e+01 1.305401135464539508e-01
5.688000000000000966e+01 1.300149422483359851e-01
5.724000000000000199e+01 1.295381596293642412e-01
5.760000000000000853e+01 1.291124440567614495e-01
5.796000000000000796e+01 1.287403677598362994e-01
5.832000000000000028e+01 1.284243312557127870e-01
5.867999999999999972e+01 1.281664941553513903e-01
5.903999999999999915e+01 1.279687061287293481e-01
5.940000000000001279e+01 1.278324425474309245e-01
5.975999999999999801e+01 1.277587496247434007e-01
6.012000000000000455e+01 1.277482035900059099e-01
6.048000000000000398e+01 1.278008875144554801e-01
6.084000000000001052e+01 1.279163879298145234e-01
6.119999999999999574e+01 1.280938115572927138e-01
6.156000000000000227e+01 1.283318205883733076e-01
6.192000000000000171e+01 1.286286833382291328e-01
6.228000000000000114e+01 1.289823359719083073e-01
6.264000000000001478e+01 1.293904505076746980e-01
6.300000000000000000e+01 1.298505044212806547e-01
6.336000000000000654e+01 1.303598477887791818e-01
6.372000000000000597e+01 1.309157648303203580e-01
6.408000000000001251e+01 1.315155277601486317e-01
6.443999999999999773e+01 1.321564418469315383e-01
6.480000000000001137e+01 1.328358814346701222e-01
6.516000000000001080e+01 1.335513173145477794e-01
6.552000000000001023e+01 1.343003362648207966e-01
6.587999999999999545e+01 1.350806538126513578e-01
6.624000000000000909e+01 1.358901213576292344e-01
6.660000000000000853e+01 1.367267287744838022e-01
6.696000000000000796e+01 1.375886035213442771e-01
6.731999999999999318e+01 1.384740071516503968e-01
6.767999999999999261e+01 1.393813299858420174e-01
6.804000000000000625e+01 1.403090845589886615e-01
6.840000000000000568e+01 1.412558983319488204e-01
6.875999999999999091e+01 1.422205060412253252e-01
6.912000000000000455e+01 1.432017419679908199e-01
6.948000000000000398e+01 1.441985323293228927e-01
6.984000000000000341e+01 1.452098879329510595e-01
7.020000000000000284e+01 1.462348971887318660e-01
7.056000000000000227e+01 1.472727195333412287e-01
7.092000000000000171e+01 1.483225792973225099e-01
7.128000000000001535e+01 1.493837600236440633e-01
7.164000000000001478e+01 1.504555992327839264e-01
7.200000000000000000e+01 1.515374836196789754e-01
7.235999999999999943e+01 1.526288446615881866e-01
7.272000000000001307e+01 1.537291546121389574e-01
7.308000000000001251e+01 1.548379228548858455e-01
7.343999999999999773e+01 1.559546925890968050e-01
7.379999999999999716e+01 1.570790378207701787e-01
7.415999999999999659e+01 1.582105606328133851e-01
7.452000000000001023e+01 1.593488887095945161e-01
7.487999999999999545e+01 1.604936730926569133e-01
7.524000000000000909e+01 1.616445861460056033e-01
7.560000000000000853e+01 1.628013197110925736e-01
7.596000000000000796e+01 1.639635834332719422e-01
7.632000000000000739e+01 1.651311032431068415e-01
7.668000000000000682e+01 1.663036199774326762e-01
7.704000000000000625e+01 1.674808881264789884e-01
7.740000000000000568e+01 1.686626746946909838e-01
7.776000000000001933e+01 1.698487581640724942e-01
7.812000000000000455e+01 1.710389275499933359e-01
7.848000000000000398e+01 1.722329815403902675e-01
7.884000000000000341e+01 1.734307277102047906e-01
7.920000000000001705e+01 1.746319818037132543e-01
7.956000000000000227e+01 1.758365670781567025e-01
7.992000000000000171e+01 1.770443137027165881e-01
8.028000000000000114e+01 1.782550582075044243e-01
8.064000000000000057e+01 1.794686429777395120e-01
8.100000000000000000e+01 1.806849157887977508e-01
8.135999999999999943e+01 1.819037293782111986e-01
8.172000000000001307e+01 1.831249410511079090e-01
8.208000000000001251e+01 1.843484123159048471e-01
8.243999999999999773e+01 1.855740085473832068e-01
8.279999999999999716e+01 1.868015986745494295e-01
8.315999999999999659e+01 1.880310548909225055e-01
8.352000000000001023e+01 1.892622523851179017e-01
8.387999999999999545e+01 1.904950690897810606e-01
8.423999999999999488e+01 1.917293854471121550e-01
8.459999999999999432e+01 1.929650841893649493e-01
8.496000000000002217e+01 1.942020501328536874e-01
8.532000000000002160e+01 1.954401699841207263e-01
8.567999999999999261e+01 1.966793321570219355e-01
8.604000000000000625e+01 1.979194265996016555e-01
8.640000000000000568e+01 1.991603446296943969e-01
8.676000000000001933e+01 2.004019787782845008e-01
8.712000000000000455e+01 2.016442226397156534e-01
8.748000000000000398e+01 2.028869707278989909e-01
8.784000000000000341e+01 2.041301183377318695e-01
8.820000000000001705e+01 2.053735614109656882e-01
8.856000000000000227e+01 2.066171964058190758e-01
8.892000000000000171e+01 2.078609201696555719e-01
8.928000000000000114e+01 2.091046298140684379e-01
8.964000000000000057e+01 2.103482225917472359e-01
9.000000000000000000e+01 2.115915957745088949e-01
9.035999999999999943e+01 2.128346465318894098e-01
9.071999999999999886e+01 2.140772718097069260e-01
9.107999999999999829e+01 2.153193682079984073e-01
9.143999999999999773e+01 2.165608318577357250e-01
9.179999999999999716e+01 2.178015582957242291e-01
9.215999999999999659e+01 2.190414423370721786e-01
9.252000000000001023e+01 2.202803779445993426e-01
9.288000000000000966e+01 2.215182580945470880e-01
9.324000000000000909e+01 2.227549746379087203e-01
9.360000000000000853e+01 2.239904181566871599e-01
9.396000000000000796e+01 2.252244778143397963e-01
9.432000000000000739e+01 2.264570411996279509e-01
9.468000000000000682e+01 2.276879941630564896e-01
9.504000000000000625e+01 2.289172206450142411e-01
9.540000000000000568e+01 2.301446024946832425e-01
9.576000000000000512e+01 2.313700192787058463e-01
9.612000000000000455e+01 2.325933480785244700e-01
9.648000000000000398e+01 2.338144632752287844e-01
9.684000000000000341e+01 2.350332363206434072e-01
9.720000000000000284e+01 2.362495354932834801e-01
9.756000000000000227e+01 2.374632256376970896e-01
9.792000000000000171e+01 2.386741678855659743e-01
9.828000000000000114e+01 2.398822193568183603e-01
9.864000000000001478e+01 2.410872328388192487e-01
9.900000000000001421e+01 2.422890564415513537e-01
9.936000000000001364e+01 2.434875332264921644e-01
9.972000000000001307e+01 2.446825008066929596e-01
1.000800000000000125e+02 2.458737909153120016e-01
1.004400000000000119e+02 2.470612289396191541e-01
1.008000000000000114e+02 2.482446334171920788e-01
1.011600000000000108e+02 2.494238154907186256e-01
1.015200000000000102e+02 2.505985783174886627e-01
1.018800000000000097e+02 2.517687164292830571e-01
1.022400000000000091e+02 2.529340150379777441e-01
1.026000000000000085e+02 2.540942492817445664e-01
1.029600000000000080e+02 2.552491834062666221e-01
1.033200000000000074e+02 2.563985698748939002e-01
1.036799999999999926e+02 2.575421484011324313e-01
1.040400000000000063e+02 2.586796448963039063e-01
1.044000000000000057e+02 2.598107703246372302e-01
1.047600000000000051e+02 2.609352194574485750e-01
1.051199999999999903e+02 2.620526695174785758e-01
1.054800000000000182e+02 2.631627787038460231e-01
1.058400000000000176e+02 2.642651845875392258e-01
1.062000000000000171e+02 2.653595023668529063e-01
1.065599999999999881e+02 2.664453229718043437e-01
1.069200000000000017e+02 2.675222110062934200e-01
1.072800000000000153e+02 2.685897025167821583e-01
1.076400000000000148e+02 2.696473025765351861e-01
1.080000000000000142e+02 2.706944826751758737e-01
1.083599999999999994e+02 2.717306779045897125e-01
1.087200000000000131e+02 2.727552839341923496e-01
1.090800000000000125e+02 2.737676537715468261e-01
1.094400000000000119e+02 2.747670943084911110e-01
1.097999999999999972e+02 2.757528626586583931e-01
1.101599999999999966e+02 2.767241622999125905e-01
1.105200000000000102e+02 2.776801390452596774e-01
1.108800000000000097e+02 2.786198768786921631e-01
1.112399999999999949e+02 2.795423937087889166e-01
1.115999999999999943e+02 2.804466371132868785e-01
1.119600000000000222e+02 2.813314801728683534e-01
1.123200000000000216e+02 2.821957175225429659e-01
1.126799999999999926e+02 2.830380617846458002e-01
1.130399999999999920e+02 2.838571405885398913e-01
1.134000000000000057e+02 2.846514944282036996e-01
1.137600000000000193e+02 2.854195756587251109e-01
1.141200000000000045e+02 2.861597489839471931e-01
1.144800000000000040e+02 2.868702938365656485e-01
1.148400000000000034e+02 2.875494090933378155e-01
1.152000000000000171e+02 2.881952205945378376e-01
1.155600000000000165e+02 2.888057919390348283e-01
1.159200000000000159e+02 2.893791389935589375e-01
1.162800000000000153e+02 2.899132484751697492e-01
1.166400000000000006e+02 2.904061008287817658e-01
1.170000000000000000e+02 2.908556974191244260e-01
1.173599999999999994e+02 2.912600917869319628e-01
1.177199999999999989e+02 2.916174243902209251e-01
1.180799999999999983e+02 2.919259598828377045e-01
1.184400000000000261e+02 2.921841256073713922e-01
1.188000000000000256e+02 2.923905496432011031e-01
1.191600000000000250e+02 2.925440965055869924e-01
1.195199999999999960e+02 2.926438984899302209e-01
1.198800000000000097e+02 2.926893807364273070e-01
1.202400000000000091e+02 2.926802783715344858e-01
1.206000000000000085e+02 2.926166445507856206e-01
1.209600000000000080e+02 2.924988488374004048e-01
1.213200000000000074e+02 2.923275660313960356e-01
1.216800000000000210e+02 2.921037562298578472e-01
1.220400000000000205e+02 2.918286374684638806e-01
1.223999999999999915e+02 2.915036527036725111e-01
1.227600000000000051e+02 2.911304331093436115e-01
1.231200000000000045e+02 2.907107596784555548e-01
1.234800000000000040e+02 2.902465249658634505e-01
1.238400000000000034e+02 2.897396965267278746e-01
1.242000000000000028e+02 2.891922832503360796e-01
1.245600000000000023e+02 2.886063054116081439e-01
1.249200000000000301e+02 2.879837689041408466e-01
1.252800000000000296e+02 2.873266438079148943e-01
1.256399999999999864e+02 2.866368471972727261e-01
1.260000000000000000e+02 2.859162299146260078e-01
1.263600000000000136e+02 2.851665669184477170e-01
1.267200000000000131e+02 2.843895507514420107e-01
1.270800000000000125e+02 2.835867876549295619e-01
1.274400000000000119e+02 2.827597958669287870e-01
1.278000000000000114e+02 2.819100056738348403e-01
1.281600000000000250e+02 2.810387608301686546e-01
1.285199999999999818e+02 2.801473210112117029e-01
1.288799999999999955e+02 2.792368650144150255e-01
1.292400000000000091e+02 2.783084944742565403e-01
1.296000000000000227e+02 2.773632378997380465e-01
1.299600000000000080e+02 2.764020548830016244e-01
1.303200000000000216e+02 2.754258403613321082e-01
1.306800000000000068e+02 2.744354288431753441e-01
1.310400000000000205e+02 2.734315985322592901e-01
1.314000000000000341e+02 2.724150753028539707e-01
1.317599999999999909e+02 2.713865364943768288e-01
1.321200000000000045e+02 2.703466145054170267e-01
1.324800000000000182e+02 2.692959001764473892e-01
1.328400000000000034e+02 2.682349459574384087e-01
1.332000000000000171e+02 2.671642688617655303e-01
1.335600000000000023e+02 2.660843532115304000e-01
1.339200000000000159e+02 2.649956531820333305e-01
1.342800000000000011e+02 2.638985951548756814e-01
1.346399999999999864e+02 2.627935798902109599e-01
1.350000000000000000e+02 2.616809845292439318e-01
1.353599999999999852e+02 2.605611644382427872e-01
1.357199999999999989e+02 2.594344549052097215e-01
1.360800000000000125e+02 2.583011727000826818e-01
1.364400000000000261e+02 2.571616175088923262e-01
1.368000000000000114e+02 2.560160732517839377e-01
1.371600000000000250e+02 2.548648092942318866e-01
1.375199999999999818e+02 2.537080815601990835e-01
1.378799999999999955e+02 2.525461335553664810e-01
1.382400000000000091e+02 2.513791973079897990e-01
1.385999999999999943e+02 2.502074942343488484e-01
1.389600000000000080e+02 2.490312359352213345e-01
1.393200000000000216e+02 2.478506249292830310e-01
1.396800000000000068e+02 2.466658553288639533e-01
1.400400000000000205e+02 2.454771134630223950e-01
1.404000000000000057e+02 2.442845784524942665e-01
1.407599999999999909e+02 2.430884227406730769e-01
1.411200000000000045e+02 2.418888125844283754e-01
1.414799999999999898e+02 2.406859085082431737e-01
1.418400000000000034e+02 2.394798657248448925e-01
1.422000000000000171e+02 2.382708345252363968e-01
1.425600000000000307e+02 2.370589606407823569e-01
1.429200000000000159e+02 2.358443855797819622e-01
1.432800000000000296e+02 2.346272469407457428e-01
