Theta (degrees)	Normalized Energy
0.000000000000000000e+00 0.000000000000000000e+00
9.004502251125563461e-01 5.513792508698174945e-04
1.800900450225112692e+00 2.204319695841436277e-03
2.701350675337669038e+00 4.955231834519654814e-03
3.601800900450225384e+00 8.798141197830726401e-03
4.502251125562780842e+00 1.372470041243766849e-02
5.402701350675338077e+00 1.972420603655700155e-02
6.303151575787894423e+00 2.678362018793580684e-02
7.203601800900450769e+00 3.488759691032937427e-02
8.104052026013006227e+00 4.401851325027882067e-02
9.004502251125561685e+00 5.415650500854606031e-02
9.904952476238117143e+00 6.527950709022095621e-02
1.080540270135067615e+01 7.736329844605878414e-02
1.170585292646323161e+01 9.038155148127828553e-02
1.260630315157578885e+01 1.043058859044029701e-01
1.350675337668834430e+01 1.191059269280184685e-01
1.440720360180090154e+01 1.347493677180433558e-01
1.530765382691345877e+01 1.512020360190533819e-01
1.620810405202601245e+01 1.684279648377645655e-01
1.710855427713856969e+01 1.863894670800972930e-01
1.800900450225112337e+01 2.050472140258856046e-01
1.890945472736368416e+01 2.243603175029695584e-01
1.980990495247623429e+01 2.442864156365096573e-01
2.071035517758879507e+01 2.647817620188106513e-01
2.161080540270135231e+01 2.858013181488597843e-01
2.251125562781390599e+01 3.072988489860839501e-01
2.341170585292646322e+01 3.292270214232703718e-01
2.431215607803902046e+01 3.515375055345145716e-01
2.521260630315157769e+01 3.741810783706315258e-01
2.611305652826413137e+01 3.971077301308669205e-01
2.701350675337668861e+01 4.202667724872621302e-01
2.791395697848924584e+01 4.436069488611337763e-01
2.881440720360180308e+01 4.670765464127460409e-01
2.971485742871435320e+01 4.906235095197446494e-01
3.061530765382691754e+01 5.141955545179637266e-01
3.151575787893946767e+01 5.377402854319988101e-01
3.241620810405202491e+01 5.612053104609324716e-01
3.331665832916458214e+01 5.845383589685377856e-01
3.421710855427713938e+01 6.076873986908638559e-01
3.511755877938969661e+01 6.306007529046520066e-01
3.601800900450224674e+01 6.532272172890708495e-01
3.691845922961481108e+01 6.755161761913190954e-01
3.781890945472736831e+01 6.974177180219236494e-01
3.871935967983991844e+01 7.188827494981172572e-01
3.961980990495246857e+01 7.398631084564234461e-01
4.052026013006503291e+01 7.603116749383389550e-01
4.142071035517759015e+01 7.801824802776842205e-01
4.232116058029014027e+01 7.994308139083977638e-01
4.322161080540270461e+01 8.180133276076323456e-01
4.412206103051525474e+01 8.358881369019409702e-01
4.502251125562781198e+01 8.530149193678597808e-01
4.592296148074036211e+01 8.693550095609413608e-01
4.682341170585292645e+01 8.848714903123813258e-01
4.772386193096547657e+01 8.995292801453071974e-01
4.862431215607804091e+01 9.132952165671066602e-01
4.952476238119059104e+01 9.261381350051404171e-01
5.042521260630315538e+01 9.380289431578817672e-01
5.132566283141570551e+01 9.489406905730900510e-01
5.222611305652826275e+01 9.588486332078244301e-01
5.312656328164081998e+01 9.677302928422232275e-01
5.402701350675337721e+01 9.755655111292754755e-01
5.492746373186592734e+01 9.823364981493727388e-01
5.582791395697849168e+01 9.880278753106207512e-01
5.672836418209104181e+01 9.926267124907255379e-01
5.762881440720360615e+01 9.961225592872841039e-01
5.852926463231615628e+01 9.985074702993180784e-01
5.942971485742870641e+01 9.997760243625001264e-01
6.033016508254126364e+01 9.999253376812788918e-01
6.123061530765383509e+01 9.989550708109017352e-01
6.213106553276638522e+01 9.968674294838522076e-01
6.303151575787893535e+01 9.936671592615088366e-01
6.393196598299149258e+01 9.893615340458864482e-01
6.483241620810404982e+01 9.839603384628158311e-01
6.573286643321659994e+01 9.774758441855001534e-01
6.663331665832916428e+01 9.699227802728636050e-01
6.753376688344172862e+01 9.613182975802704311e-01
6.843421710855427875e+01 9.516819273930180456e-01
6.933466733366682888e+01 9.410355343570212527e-01
7.023511755877939322e+01 9.294032638868608975e-01
7.113556778389194335e+01 9.168114841639979362e-01
7.203601800900449348e+01 9.032887229284337627e-01
7.293646823411705782e+01 8.888655992228373659e-01
7.383691845922962216e+01 8.735747502951606291e-01
7.473736868434217229e+01 8.574507538610646185e-01
7.563781890945473663e+01 8.405300459529353452e-01
7.653826913456728676e+01 8.228508345803138280e-01
7.743871935967983688e+01 8.044530094398771869e-01
7.833916958479238701e+01 7.853780479373960732e-01
7.923961980990493714e+01 7.656689177535394020e-01
8.014007003501751569e+01 7.453699762445422650e-01
8.104052026013006582e+01 7.245268669252770133e-01
8.194097048524263016e+01 7.031864133175173004e-01
8.284142071035518029e+01 6.813965104512773596e-01
8.374187093546773042e+01 6.592060142734240680e-01
8.464232116058028055e+01 6.366646292761209969e-01
8.554277138569284489e+01 6.138227945993000034e-01
8.644322161080540923e+01 5.907315689267709224e-01
8.734367183591795936e+01 5.674425144125394560e-01
8.824412206103050949e+01 5.440075799596848505e-01
8.914457228614307382e+01 5.204789841016859153e-01
9.004502251125562395e+01 4.969090977811272403e-01
9.094547273636817408e+01 4.733503272729347455e-01
9.184592296148072421e+01 4.498549975486384467e-01
9.274637318659327434e+01 4.264752363017850767e-01
9.364682341170585289e+01 4.032628589329575464e-01
9.454727363681840302e+01 3.802692547086486963e-01
9.544772386193095315e+01 3.575452743450536208e-01
9.634817408704353170e+01 3.351411192611865042e-01
9.724862431215608183e+01 3.131062327073440010e-01
9.814907453726863196e+01 2.914891929992208253e-01
9.904952476238118209e+01 2.703376090691823608e-01
9.994997498749376064e+01 2.496980185258332596e-01
1.008504252126063108e+02 2.296157884094937596e-01
1.017508754377188609e+02 2.101350188597902457e-01
1.026513256628314110e+02 1.912984498156040936e-01
1.035517758879439612e+02 1.731473709639759218e-01
1.044522261130565255e+02 1.557215350644765295e-01
1.053526763381690756e+02 1.390590748072824123e-01
1.062531265632816400e+02 1.231964233349914645e-01
1.071535767883941901e+02 1.081682385797586021e-01
1.080540270135067544e+02 9.400733150348593303e-02
1.089544772386193046e+02 8.074459838677174039e-02
1.098549274637318547e+02 6.840895725396174687e-02
1.107553776888444048e+02 5.702728852987182934e-02
1.116558279139569834e+02 4.662438003080129206e-02
1.125562781390695335e+02 3.722287634819664709e-02
1.134567283641820836e+02 2.884323272366815655e-02
1.143571785892946480e+02 2.150367346236040436e-02
1.152576288144072123e+02 1.522015495243689287e-02
1.161580790395197624e+02 1.000633333611312785e-02
1.170585292646323126e+02 5.873536882372721278e-03
1.179589794897448627e+02 2.830743097400798079e-03
1.188594297148574128e+02 8.845605970186034466e-04
1.197598799399699629e+02 3.921578381204611415e-05
1.206603301650825273e+02 2.965443152455010212e-04
1.215607803901950774e+02 1.655987413287125917e-03
1.224612306153076702e+02 4.114592984994933089e-03
1.233616808404202203e+02 7.667021576780847468e-03
1.242621310655327704e+02 1.230555713728545900e-02
1.251625812906453206e+02 1.802012259278024109e-02
1.260630315157578707e+02 2.479830019514623826e-02
1.269634817408704208e+02 3.262535662989558133e-02
1.278639319659829852e+02 4.148427283958473072e-02
1.287643821910955353e+02 5.135577853324371778e-02
1.296648324162080996e+02 6.221839131719476140e-02
1.305652826413206640e+02 7.404846041631789333e-02
1.314657328664331999e+02 8.682021489371954948e-02
1.323661830915457642e+02 1.005058163347283817e-01
1.332666333166583286e+02 1.150754158855488291e-01
1.341670835417708645e+02 1.304972155784208110e-01
1.350675337668834572e+02 1.467375338582917743e-01
1.359679839919960216e+02 1.637608751934981344e-01
1.368684342171085575e+02 1.815300036658785698e-01
1.377688844422211218e+02 2.000060204373083073e-01
1.386693346673336578e+02 2.191484449504757515e-01
1.395697848924462221e+02 2.389152997377818610e-01
1.404702351175587864e+02 2.592631986930502563e-01
1.413706853426713224e+02 2.801474386583858722e-01
1.422711355677838867e+02 3.015220941565867063e-01
1.431715857928964226e+02 3.233401151100876447e-01
1.440720360180089870e+02 3.455534273658740219e-01
1.449724862431215513e+02 3.681130358258258850e-01
1.458729364682341156e+02 3.909691300105478939e-01
1.467733866933466516e+02 4.140711918263786373e-01
1.476738369184592443e+02 4.373681053452248002e-01
1.485742871435717802e+02 4.608082683571223526e-01
1.494747373686843446e+02 4.843397054793198708e-01
1.503751875937969089e+02 5.079101825778692403e-01
1.512756378189094733e+02 5.314673222624094473e-01
1.521760880440220092e+02 5.549587201983792184e-01
1.530765382691345735e+02 5.783320619840269794e-01
1.539769884942471094e+02 6.015352403223525046e-01
1.548774387193596738e+02 6.245164722380922573e-01
1.557778889444722381e+02 6.472244160393307855e-01
1.566783391695847740e+02 6.696082877687592472e-01
1.575787893946973384e+02 6.916179768629622249e-01
1.584792396198098743e+02 7.132041607326381483e-01
1.593796898449224386e+02 7.343184179766517605e-01
1.602801400700350314e+02 7.549133399588788818e-01
1.611805902951475673e+02 7.749426404623129816e-01
1.620810405202601316e+02 7.943612631223655463e-01
1.629814907453726960e+02 8.131254863879069372e-01
1.638819409704852603e+02 8.311930257084532148e-01
1.647823911955977962e+02 8.485231326866461421e-01
1.656828414207103606e+02 8.650766909367340052e-01
1.665832916458228965e+02 8.808163083709649177e-01
1.674837418709354608e+02 8.957064056745761560e-01
1.683841920960479968e+02 9.097133007261513082e-01
1.692846423211605611e+02 9.228052887083609823e-01
1.701850925462731539e+02 9.349527177132515021e-01
1.710855427713856898e+02 9.461280596047237923e-01
1.719859929964982541e+02 9.563059759364899159e-01
1.728864432216108185e+02 9.654633787641371256e-01
1.737868934467233544e+02 9.735794861276509948e-01
1.746873436718359187e+02 9.806358720970793641e-01
1.755877938969484546e+02 9.866165111898066442e-01
1.764882441220610190e+02 9.915078170552532599e-01
1.773886943471736117e+02 9.952986753145884880e-01
1.782891445722861476e+02 9.979804704332541077e-01
1.791895947973987120e+02 9.995471065816472489e-01
1.800900450225112479e+02 9.999950223950523354e-01
1.809904952476238122e+02 9.993231995995301986e-01
1.818909454727363482e+02 9.975331654806534054e-01
1.827913956978489125e+02 9.946289891856900933e-01
1.836918459229614484e+02 9.906172718611935268e-01
1.845922961480740128e+02 9.855071306710390111e-01
1.854927463731865487e+02 9.793101767340784969e-01
1.863931965982991699e+02 9.720404870385950247e-01
1.872936468234117058e+02 9.637145704389192824e-01
1.881940970485242701e+02 9.543513278074517991e-01
1.890945472736368060e+02 9.439720064780017239e-01
1.899949974987493704e+02 9.326001491096962415e-01
1.908954477238619063e+02 9.202615371159880153e-01
1.917958979489744706e+02 9.069841288236584198e-01
1.926963481740870634e+02 8.927979925451188237e-01
1.935967983991995993e+02 8.777352347535825050e-01
1.944972486243121637e+02 8.618299235596875718e-01
1.953976988494246996e+02 8.451180077210498354e-01
1.962981490745372639e+02 8.276372313868529673e-01
1.971985992996497998e+02 8.094270448469471635e-01
1.980990495247623642e+02 7.905285115063633850e-01
1.989994997498749285e+02 7.709842113488400983e-01
1.998999499749875213e+02 7.508381411580538067e-01
2.008004002001000572e+02 7.301356117464410378e-01
2.017008504252126215e+02 7.089231424861550668e-01
2.026013006503251574e+02 6.872483534034026231e-01
2.035017508754377218e+02 6.651598551193447229e-01
2.044022011005502577e+02 6.427071369246593058e-01
2.053026513256628220e+02 6.199404532658565614e-01
2.062031015507753580e+02 5.969107089284866330e-01
2.071035517758879223e+02 5.736693431968972190e-01
2.080040020010005151e+02 5.502682132827312333e-01
2.089044522261130510e+02 5.267594772806711845e-01
2.098049024512256153e+02 5.031954769479293210e-01
2.107053526763381512e+02 4.796286205663812807e-01
2.116058029014507156e+02 4.561112661591668616e-01
2.125062531265632799e+02 4.326956053167395067e-01
2.134067033516758443e+02 4.094335479030120628e-01
2.143071535767883802e+02 3.863766078746472821e-01
2.152076038019009729e+02 3.635757904625984138e-01
2.161080540270135089e+02 3.410814809579561513e-01
2.170085042521260732e+02 3.189433353194824905e-01
2.179089544772386091e+02 2.972101728260868603e-01
2.188094047023511735e+02 2.759298709853579834e-01
2.197098549274637094e+02 2.551492629096568376e-01
2.206103051525762737e+02 2.349140373360252831e-01
2.215107553776888096e+02 2.152686414931897774e-01
2.224112056028013740e+02 1.962561869829067551e-01
2.233116558279139667e+02 1.779183588425032048e-01
2.242121060530265311e+02 1.602953279582084445e-01
2.251125562781390670e+02 1.434256669620558589e-01
2.260130065032516313e+02 1.273462697694158763e-01
2.269134567283641672e+02 1.120922748781891798e-01
2.278139069534767316e+02 9.769699256713783309e-02
2.287143571785892959e+02 8.419183608774874483e-02
2.296148074037018034e+02 7.160625697809912260e-02
2.305152576288144246e+02 5.996768458215093883e-02
2.314157078539269889e+02 4.930146987513547158e-02
2.323161580790395249e+02 3.963083367375461880e-02
2.332166083041520892e+02 3.097681930052584298e-02
2.341170585292646251e+02 2.335824978413103548e-02
2.350175087543771895e+02 1.679168964433722794e-02
2.359179589794897254e+02 1.129141131867386627e-02
2.368184092046022897e+02 6.869366275517740580e-03
2.377188594297148256e+02 3.535160861761800239e-03
2.386193096548274184e+02 1.296036898776490925e-03
2.395197598799399259e+02 1.568570775815679528e-04
2.404202101050525187e+02 1.200951493116070046e-04
2.413206603301650546e+02 1.185830940350942426e-03
2.422211105552776189e+02 3.351750193704740744e-03
2.431215607803901548e+02 6.613149229556034361e-03
2.440220110055027476e+02 1.096294443049218061e-02
2.449224612306153404e+02 1.639168653965046574e-02
2.458229114557278763e+02 2.288757972556502290e-02
2.467233616808404406e+02 3.043650543956573362e-02
2.476238119059529765e+02 3.902205097211843693e-02
2.485242621310655409e+02 4.862554272494852559e-02
2.494247123561780768e+02 5.922608411277918011e-02
2.503251625812906411e+02 7.080059806335003980e-02
2.512256128064031770e+02 8.332387405069813235e-02
2.521260630315157414e+02 9.676861958610749603e-02
2.530265132566282773e+02 1.111055161130677232e-01
2.539269634817408416e+02 1.263032791922638343e-01
2.548274137068533776e+02 1.423287229209791727e-01
2.557278639319659703e+02 1.591468284584416915e-01
2.566283141570785915e+02 1.767208165732948033e-01
2.575287643821910706e+02 1.950122240858978839e-01
2.584292146073036633e+02 2.139809840844286160e-01
2.593296648324161993e+02 2.335855097863172303e-01
2.602301150575287920e+02 2.537827819036174160e-01
2.611305652826413279e+02 2.745284393525100342e-01
2.620310155077538639e+02 2.957768731749448321e-01
2.629314657328663998e+02 3.174813234718814603e-01
2.638319159579789925e+02 3.395939791949845188e-01
2.647323661830915285e+02 3.620660806072019122e-01
2.656328164082041212e+02 3.848480242136453344e-01
2.665332666333166571e+02 4.078894699645855271e-01
2.674337168584291931e+02 4.311394505147488343e-01
2.683341670835417290e+02 4.545464823305422897e-01
2.692346173086543217e+02 4.780586784031519709e-01
2.701350675337669145e+02 5.016238623477843328e-01
2.710355177588793936e+02 5.251896836301515048e-01
2.719359679839920432e+02 5.487037336926376963e-01
2.728364182091045222e+02 5.721136627012725073e-01
2.737368684342171150e+02 5.953672966679298684e-01
2.746373186593296509e+02 6.184127546810218590e-01
2.755377688844422437e+02 6.411985659556294070e-01
2.764382191095547796e+02 6.636737864629728145e-01
2.773386693346673155e+02 6.857881148153046613e-01
2.782391195597798514e+02 7.074920071637799124e-01
2.791395697848924442e+02 7.287367908081008316e-01
2.800400200100049801e+02 7.494747762359323939e-01
2.809404702351175729e+02 7.696593673171295835e-01
2.818409204602301088e+02 7.892451693558876213e-01
2.827413706853426447e+02 8.081880947411318461e-01
2.836418209104552375e+02 8.264454658951246868e-01
2.845422711355677734e+02 8.439761152676571454e-01
2.854427213606803662e+02 8.607404820946026325e-01
2.863431715857928452e+02 8.767007056615421234e-01
2.872436218109054948e+02 8.918207148225718583e-01
2.881440720360179739e+02 9.060663135216616704e-01
2.890445222611305667e+02 9.194052620792092512e-01
2.899449724862431026e+02 9.318073540166164070e-01
2.908454227113556954e+02 9.432444882030752709e-01
2.917458729364682313e+02 9.536907361197164423e-01
2.926463231615807672e+02 9.631224040343151493e-01
2.935467733866933031e+02 9.715180899424167293e-01
2.944472236118058959e+02 9.788587350582866886e-01
2.953476738369184886e+02 9.851276697601148991e-01
2.962481240620310246e+02 9.903106538089103683e-01
2.971485742871435605e+02 9.943959107537454489e-01
2.980490245122560964e+02 9.973741564179854358e-01
2.989494747373686891e+02 9.992386213505694004e-01
2.998499249624812251e+02 9.999850672345083069e-01
3.007503751875938178e+02 9.996117971413633896e-01
3.016508254127062969e+02 9.981196596485484296e-01
3.025512756378189465e+02 9.955120467830288478e-01
3.034517258629314256e+02 9.917948858019930425e-01
3.043521760880440183e+02 9.869766248402638276e-01
3.052526263131565543e+02 9.810682124593089748e-01
3.061530765382691470e+02 9.740830711648272855e-01
3.070535267633816829e+02 9.660370649704623780e-01
3.079539769884942189e+02 9.569484610977294636e-01
3.088544272136068116e+02 9.468378859300501382e-01
3.097548774387193475e+02 9.357282753501482420e-01
3.106553276638319403e+02 9.236448196018096635e-01
3.115557778889444762e+02 9.106149028381610444e-01
3.124562281140570121e+02 8.966680375350712939e-01
3.133566783391695481e+02 8.818357939463220552e-01
3.142571285642821408e+02 8.661517248202774688e-01
3.151575787893946767e+02 8.496512855703665101e-01
3.160580290145072695e+02 8.323717501406499020e-01
3.169584792396197486e+02 8.143521227971706189e-01
3.178589294647323982e+02 7.956330460777414348e-01
3.187593796898448772e+02 7.762567051735617119e-01
3.196598299149574700e+02 7.562667289831512818e-01
3.205602801400700628e+02 7.357080881182589405e-01
3.214607303651825987e+02 7.146269901245605460e-01
3.223611805902951346e+02 6.930707721968034640e-01
3.232616308154076705e+02 6.710877916700123125e-01
3.241620810405202633e+02 6.487273145605380043e-01
3.250625312656327992e+02 6.260394024526669821e-01
3.259629814907453920e+02 6.030747979955606297e-01
3.268634317158579279e+02 5.798848093152533245e-01
3.277638819409705206e+02 5.565211936056956299e-01
3.286643321660829997e+02 5.330360401843758922e-01
3.295647823911955925e+02 5.094816532953109212e-01
3.304652326163081284e+02 4.859104349163454462e-01
3.313656828414207212e+02 4.623747678633413627e-01
3.322661330665332002e+02 4.389268994223473608e-01
3.331665832916457930e+02 4.156188257995886426e-01
3.340670335167583858e+02 3.925021776176241817e-01
3.349674837418709217e+02 3.696281067126528930e-01
3.358679339669835144e+02 3.470471744699328287e-01
3.367683841920959935e+02 3.248092419201772940e-01
3.376688344172086431e+02 3.029633618284086616e-01
3.385692846423211222e+02 2.815576729812915846e-01
3.394697348674337150e+02 2.606392968860176684e-01
3.403701850925463077e+02 2.402542370636540914e-01
3.412706353176588436e+02 2.204472811433702273e-01
3.421710855427713796e+02 2.012619059173456071e-01
3.430715357678839155e+02 1.827401855486729121e-01
3.439719859929965082e+02 1.649227030654251969e-01
3.448724362181090441e+02 1.478484653194926668e-01
3.457728864432216369e+02 1.315548215429665768e-01
3.466733366683341160e+02 1.160773856262320436e-01
3.475737868934467087e+02 1.014499622685648417e-01
3.484742371185593015e+02 8.770447709053497132e-02
3.493746873436718374e+02 7.487091084530297924e-02
3.502751375687843733e+02 6.297723779774468122e-02
3.511755877938969093e+02 5.204936840339891707e-02
3.520760380190095020e+02 4.211109633228117544e-02
3.529764882441220379e+02 3.318404994723251483e-02
3.538769384692345739e+02 2.528764828223818359e-02
3.547773886943472235e+02 1.843906159983460871e-02
3.556778389194597025e+02 1.265317657969769298e-02
3.565782891445722953e+02 7.942566172879904698e-03
3.574787393696848312e+02 4.317464184756134027e-03
3.583791895947974240e+02 1.785744603911991512e-03
